?
5.0      3667
5.02     3532
5.04     3568
5.06     3589
5.08     3621
5.1      3541
5.12     3541
5.14     3473
5.16     3547
5.18     3579
5.2      3496
5.22     3514
5.24     3522
5.26     3442
5.28     3613
5.3      3459
5.32     3383
5.34     3469
5.36     3407
5.38     3501
5.4      3409
5.42     3570
5.44     3459
5.46     3479
5.48     3507
5.5      3494
5.52     3320
5.54     3476
5.56     3474
5.58     3482
5.6      3524
5.62     3525
5.64     3557
5.66     3463
5.68     3302
5.7      3483
5.72     3452
5.74     3590
5.76     3448
5.78     3447
5.8      3510
5.82     3361
5.84     3410
5.86     3446
5.88     3536
5.9      3497
5.92     3393
5.94     3527
5.96     3450
5.98     3459
6.0      3474
6.02     3441
6.04     3479
6.06     3404
6.08     3436
6.1      3400
6.12     3458
6.14     3401
6.16     3400
6.18     3380
6.2      3325
6.22     3348
6.24     3415
6.26     3395
6.28     3450
6.3      3387
6.32     3439
6.34     3364
6.36     3333
6.38     3383
6.4      3326
6.42     3494
6.44     3481
6.46     3412
6.48     3413
6.5      3431
6.52     3355
6.54     3281
6.56     3310
6.58     3338
6.6      3406
6.62     3350
6.64     3340
6.66     3452
6.68     3413
6.7      3341
6.72     3310
6.74     3375
6.76     3436
6.78     3374
6.8      3350
6.82     3337
6.84     3321
6.86     3375
6.88     3390
6.9      3249
6.92     3337
6.94     3270
6.96     3331
6.98     3379
7.0      3240
7.02     3183
7.04     3343
7.06     3380
7.08     3301
7.1      3318
7.12     3268
7.14     3389
7.16     3197
7.18     3285
7.2      3376
7.22     3267
7.24     3289
7.26     3303
7.28     3362
7.3      3240
7.32     3277
7.34     3296
7.36     3271
7.38     3258
7.4      3274
7.42     3329
7.44     3268
7.46     3142
7.48     3295
7.5      3317
7.52     3330
7.54     3315
7.56     3336
7.58     3364
7.6      3301
7.62     3262
7.64     3297
7.66     3264
7.68     3220
7.7      3310
7.72     3225
7.74     3240
7.76     3331
7.78     3329
7.8      3164
7.82     3189
7.84     3218
7.86     3298
7.88     3246
7.9      3175
7.92     3348
7.94     3191
7.96     3326
7.98     3172
8.0      3187
8.02     3237
8.04     3260
8.06     3147
8.08     3149
8.1      3104
8.12     3261
8.14     3213
8.16     3192
8.18     3209
8.2      3153
8.22     3207
8.24     3223
8.26     3182
8.28     3180
8.3      3207
8.32     3134
8.34     3207
8.36     3219
8.38     3082
8.4      3129
8.42     3098
8.44     3235
8.46     3184
8.48     3247
8.5      3161
8.52     3125
8.54     3215
8.56     3145
8.58     3108
8.6      3135
8.62     3067
8.64     3154
8.66     3111
8.68     3093
8.7      3072
8.72     3045
8.74     3084
8.76     3071
8.78     3126
8.8      3163
8.82     3079
8.84     3098
8.86     3048
8.88     3085
8.9      3029
8.92     3092
8.94     3031
8.96     3054
8.98     3021
9.0      3167
9.02     3028
9.04     3066
9.06     2949
9.08     3036
9.1      2955
9.12     3034
9.14     2970
9.16     2927
9.18     3046
9.2      2942
9.22     3073
9.24     2970
9.26     2973
9.28     2954
9.3      2950
9.32     2954
9.34     2951
9.36     2918
9.38     2958
9.4      2973
9.42     2981
9.44     2929
9.46     2876
9.48     2932
9.5      2838
9.52     2856
9.54     2907
9.56     2940
9.58     2889
9.6      2939
9.62     2811
9.64     2950
9.66     2879
9.68     2873
9.7      2806
9.72     2781
9.74     2776
9.76     2880
9.78     2822
9.8      2809
9.82     2854
9.84     2793
9.86     2794
9.88     2783
9.9      2834
9.92     2714
9.94     2720
9.96     2785
9.98     2770
10.0     2747
10.02    2718
10.04    2654
10.06    2717
10.08    2693
10.1     2816
10.12    2607
10.14    2697
10.16    2671
10.18    2681
10.2     2659
10.22    2706
10.24    2647
10.26    2605
10.28    2612
10.3     2688
10.32    2625
10.34    2613
10.36    2636
10.38    2603
10.4     2613
10.42    2624
10.44    2682
10.46    2558
10.48    2549
10.5     2608
10.52    2574
10.54    2556
10.56    2538
10.58    2560
10.6     2570
10.62    2646
10.64    2545
10.66    2481
10.68    2599
10.7     2583
10.72    2529
10.74    2566
10.76    2526
10.78    2479
10.8     2465
10.82    2497
10.84    2518
10.86    2434
10.88    2566
10.9     2501
10.92    2547
10.94    2573
10.96    2506
10.98    2537
11.0     2520
11.02    2517
11.04    2484
11.06    2409
11.08    2472
11.1     2439
11.12    2415
11.14    2477
11.16    2484
11.18    2546
11.2     2417
11.22    2545
11.24    2500
11.26    2472
11.28    2499
11.3     2514
11.32    2495
11.34    2460
11.36    2374
11.38    2511
11.4     2412
11.42    2433
11.44    2489
11.46    2482
11.48    2520
11.5     2491
11.52    2540
11.54    2535
11.56    2596
11.58    2672
11.6     2556
11.62    2576
11.64    2479
11.66    2598
11.68    2567
11.7     2472
11.72    2436
11.74    2459
11.76    2432
11.78    2330
11.8     2313
11.82    2382
11.84    2354
11.86    2312
11.88    2372
11.9     2303
11.92    2284
11.94    2355
11.96    2346
11.98    2348
12.0     2340
12.02    2302
12.04    2321
12.06    2263
12.08    2299
12.1     2312
12.12    2355
12.14    2267
12.16    2305
12.18    2336
12.2     2255
12.22    2327
12.24    2257
12.26    2320
12.28    2193
12.3     2263
12.32    2227
12.34    2271
12.36    2330
12.38    2260
12.4     2277
12.42    2261
12.44    2278
12.46    2345
12.48    2261
12.5     2265
12.52    2137
12.54    2258
12.56    2290
12.58    2255
12.6     2245
12.62    2314
12.64    2240
12.66    2305
12.68    2327
12.7     2302
12.72    2256
12.74    2386
12.76    2418
12.78    2399
12.8     2395
12.82    2440
12.84    2506
12.86    2564
12.88    2632
12.9     2797
12.92    2965
12.94    3114
12.96    3250
12.98    3441
13.0     3177
13.02    2929
13.04    2879
13.06    2692
13.08    2564
13.1     2366
13.12    2254
13.14    2237
13.16    2285
13.18    2215
13.2     2225
13.22    2170
13.24    2223
13.26    2175
13.28    2140
13.3     2039
13.32    2138
13.34    2197
13.36    2171
13.38    2269
13.4     2186
13.42    2135
13.44    2092
13.46    2167
13.48    2149
13.5     2217
13.52    2217
13.54    2175
13.56    2164
13.58    2055
13.6     2075
13.62    2128
13.64    2136
13.66    2103
13.68    2091
13.7     2010
13.72    2074
13.74    2021
13.76    2057
13.78    2112
13.8     2086
13.82    2102
13.84    2048
13.86    2131
13.88    2012
13.9     2044
13.92    2052
13.94    2113
13.96    2025
13.98    2140
14.0     2093
14.02    2130
14.04    2005
14.06    2034
14.08    2126
14.1     2097
14.12    2046
14.14    2046
14.16    2004
14.18    2059
14.2     1999
14.22    1999
14.24    1963
14.26    1987
14.28    1990
14.3     2042
14.32    1998
14.34    2020
14.36    1952
14.38    1938
14.4     1954
14.42    2058
14.44    2026
14.46    1929
14.48    2006
14.5     1962
14.52    1952
14.54    2010
14.56    1998
14.58    1977
14.6     1982
14.62    1955
14.64    1959
14.66    1929
14.68    1958
14.7     1969
14.72    1921
14.74    2004
14.76    1978
14.78    1968
14.8     1988
14.82    1967
14.84    1861
14.86    1918
14.88    1921
14.9     1835
14.92    1876
14.94    1954
14.96    1926
14.98    1851
15.0     1877
15.02    1943
15.04    1876
15.06    1932
15.08    1954
15.1     1785
15.12    1929
15.14    1863
15.16    1883
15.18    1868
15.2     1842
15.22    1898
15.24    1860
15.26    1892
15.28    1823
15.3     1950
15.32    1924
15.34    1961
15.36    1862
15.38    1812
15.4     1933
15.42    1858
15.44    1803
15.46    1806
15.48    1880
15.5     1829
15.52    1841
15.54    1850
15.56    1799
15.58    1783
15.6     1918
15.62    1773
15.64    1885
15.66    1884
15.68    1873
15.7     1784
15.72    1795
15.74    1809
15.76    1870
15.78    1865
15.8     1818
15.82    1849
15.84    1796
15.86    1831
15.88    1848
15.9     1825
15.92    1823
15.94    1802
15.96    1766
15.98    1807
16.0     1808
16.02    1778
16.04    1799
16.06    1817
16.08    1839
16.1     1737
16.12    1748
16.14    1814
16.16    1726
16.18    1746
16.2     1792
16.22    1776
16.24    1720
16.26    1690
16.28    1784
16.3     1821
16.32    1766
16.34    1749
16.36    1748
16.38    1751
16.4     1758
16.42    1756
16.44    1754
16.46    1813
16.48    1755
16.5     1734
16.52    1763
16.54    1802
16.56    1771
16.58    1726
16.6     1731
16.62    1767
16.64    1738
16.66    1735
16.68    1721
16.7     1724
16.72    1755
16.74    1732
16.76    1739
16.78    1784
16.8     1748
16.82    1658
16.84    1669
16.86    1739
16.88    1653
16.9     1676
16.92    1680
16.94    1754
16.96    1739
16.98    1812
17.0     1715
17.02    1721
17.04    1711
17.06    1701
17.08    1697
17.1     1697
17.12    1668
17.14    1674
17.16    1739
17.18    1707
17.2     1734
17.22    1698
17.24    1645
17.26    1671
17.28    1726
17.3     1685
17.32    1715
17.34    1628
17.36    1683
17.38    1699
17.4     1680
17.42    1764
17.44    1716
17.46    1725
17.48    1682
17.5     1660
17.52    1665
17.54    1629
17.56    1647
17.58    1699
17.6     1637
17.62    1642
17.64    1654
17.66    1707
17.68    1638
17.7     1604
17.72    1681
17.74    1641
17.76    1649
17.78    1709
17.8     1655
17.82    1654
17.84    1645
17.86    1635
17.88    1635
17.9     1629
17.92    1627
17.94    1614
17.96    1707
17.98    1678
18.0     1614
18.02    1651
18.04    1697
18.06    1695
18.08    1642
18.1     1558
18.12    1557
18.14    1588
18.16    1598
18.18    1606
18.2     1675
18.22    1657
18.24    1608
18.26    1662
18.28    1628
18.3     1559
18.32    1598
18.34    1590
18.36    1637
18.38    1579
18.4     1653
18.42    1627
18.44    1582
18.46    1587
18.48    1684
18.5     1677
18.52    1643
18.54    1652
18.56    1644
18.58    1649
18.6     1606
18.62    1665
18.64    1623
18.66    1631
18.68    1648
18.7     1652
18.72    1604
18.74    1651
18.76    1671
18.78    1669
18.8     1683
18.82    1721
18.84    1653
18.86    1703
18.88    1799
18.9     1792
18.92    1799
18.94    1687
18.96    1789
18.98    1673
19.0     1512
19.02    1608
19.04    1643
19.06    1567
19.08    1584
19.1     1646
19.12    1556
19.14    1560
19.16    1656
19.18    1626
19.2     1639
19.22    1585
19.24    1587
19.26    1592
19.28    1662
19.3     1554
19.32    1568
19.34    1566
19.36    1582
19.38    1624
19.4     1561
19.42    1571
19.44    1675
19.46    1583
19.48    1594
19.5     1640
19.52    1656
19.54    1567
19.56    1576
19.58    1552
19.6     1648
19.62    1590
19.64    1612
19.66    1644
19.68    1606
19.7     1523
19.72    1493
19.74    1607
19.76    1608
19.78    1601
19.8     1603
19.82    1546
19.84    1526
19.86    1472
19.88    1517
19.9     1599
19.92    1628
19.94    1623
19.96    1548
19.98    1579
20.0     1624
20.02    1536
20.04    1572
20.06    1616
20.08    1712
20.1     1593
20.12    1652
20.14    1707
20.16    1754
20.18    1765
20.2     1675
20.22    1660
20.24    1565
20.26    1499
20.28    1529
20.3     1462
20.32    1520
20.34    1508
20.36    1547
20.38    1495
20.4     1559
20.42    1496
20.44    1512
20.46    1534
20.48    1548
20.5     1520
20.52    1552
20.54    1585
20.56    1498
20.58    1477
20.6     1559
20.62    1478
20.64    1475
20.66    1453
20.68    1477
20.7     1507
20.72    1495
20.74    1481
20.76    1559
20.78    1620
20.8     1536
20.82    1528
20.84    1611
20.86    1523
20.88    1595
20.9     1516
20.92    1508
20.94    1582
20.96    1530
20.98    1555
21.0     1578
21.02    1583
21.04    1541
21.06    1502
21.08    1552
21.1     1605
21.12    1660
21.14    1588
21.16    1736
21.18    1753
21.2     1883
21.22    1948
21.24    2049
21.26    2268
21.28    2339
21.3     2108
21.32    1848
21.34    1749
21.36    1814
21.38    1901
21.4     1878
21.42    1803
21.44    1719
21.46    1565
21.48    1502
21.5     1541
21.52    1477
21.54    1482
21.56    1477
21.58    1472
21.6     1558
21.62    1544
21.64    1529
21.66    1511
21.68    1505
21.7     1481
21.72    1482
21.74    1483
21.76    1447
21.78    1483
21.8     1494
21.82    1520
21.84    1486
21.86    1526
21.88    1524
21.9     1476
21.92    1486
21.94    1537
21.96    1492
21.98    1477
22.0     1463
22.02    1420
22.04    1439
22.06    1464
22.08    1463
22.1     1426
22.12    1458
22.14    1529
22.16    1462
22.18    1488
22.2     1495
22.22    1511
22.24    1462
22.26    1586
22.28    1462
22.3     1473
22.32    1493
22.34    1442
22.36    1447
22.38    1455
22.4     1397
22.42    1327
22.44    1374
22.46    1456
22.48    1491
22.5     1404
22.52    1432
22.54    1369
22.56    1466
22.58    1433
22.6     1464
22.62    1438
22.64    1448
22.66    1449
22.68    1457
22.7     1407
22.72    1457
22.74    1505
22.76    1423
22.78    1424
22.8     1409
22.82    1494
22.84    1559
22.86    1622
22.88    1731
22.9     1722
22.92    1655
22.94    1580
22.96    1472
22.98    1502
23.0     1411
23.02    1341
23.04    1354
23.06    1385
23.08    1433
23.1     1440
23.12    1418
23.14    1539
23.16    1395
23.18    1448
23.2     1466
23.22    1534
23.24    1466
23.26    1471
23.28    1425
23.3     1354
23.32    1390
23.34    1389
23.36    1340
23.38    1441
23.4     1392
23.42    1484
23.44    1435
23.46    1429
23.48    1502
23.5     1587
23.52    1619
23.54    1722
23.56    1950
23.58    2060
23.6     2049
23.62    1853
23.64    1532
23.66    1419
23.68    1412
23.7     1429
23.72    1420
23.74    1345
23.76    1390
23.78    1327
23.8     1309
23.82    1391
23.84    1399
23.86    1402
23.88    1353
23.9     1386
23.92    1461
23.94    1401
23.96    1437
23.98    1414
24.0     1380
24.02    1335
24.04    1397
24.06    1405
24.08    1315
24.1     1316
24.12    1321
24.14    1347
24.16    1325
24.18    1362
24.2     1421
24.22    1307
24.24    1362
24.26    1322
24.28    1311
24.3     1321
24.32    1316
24.34    1328
24.36    1336
24.38    1372
24.4     1329
24.42    1364
24.44    1356
24.46    1344
24.48    1359
24.5     1378
24.52    1321
24.54    1299
24.56    1325
24.58    1335
24.6     1358
24.62    1273
24.64    1297
24.66    1398
24.68    1303
24.7     1361
24.72    1355
24.74    1378
24.76    1341
24.78    1315
24.8     1318
24.82    1382
24.84    1404
24.86    1331
24.88    1424
24.9     1351
24.92    1501
24.94    1517
24.96    1606
24.98    1693
25.0     1684
25.02    1614
25.04    1551
25.06    1477
25.08    1457
25.1     1403
25.12    1442
25.14    1648
25.16    1447
25.18    1433
25.2     1350
25.22    1361
25.24    1361
25.26    1331
25.28    1246
25.3     1286
25.32    1284
25.34    1236
25.36    1316
25.38    1365
25.4     1283
25.42    1308
25.44    1322
25.46    1336
25.48    1291
25.5     1394
25.52    1420
25.54    1484
25.56    1492
25.58    1590
25.6     1786
25.62    1936
25.64    2264
25.66    2463
25.68    2177
25.7     1624
25.72    1475
25.74    1343
25.76    1285
25.78    1358
25.8     1288
25.82    1241
25.84    1269
25.86    1284
25.88    1236
25.9     1190
25.92    1262
25.94    1263
25.96    1259
25.98    1310
26.0     1310
26.02    1251
26.04    1290
26.06    1333
26.08    1229
26.1     1234
26.12    1277
26.14    1250
26.16    1295
26.18    1233
26.2     1289
26.22    1227
26.24    1263
26.26    1224
26.28    1251
26.3     1260
26.32    1267
26.34    1205
26.36    1301
26.38    1234
26.4     1181
26.42    1272
26.44    1260
26.46    1211
26.48    1280
26.5     1275
26.52    1258
26.54    1265
26.56    1323
26.58    1214
26.6     1299
26.62    1243
26.64    1311
26.66    1316
26.68    1330
26.7     1251
26.72    1272
26.74    1278
26.76    1225
26.78    1284
26.8     1319
26.82    1324
26.84    1339
26.86    1269
26.88    1297
26.9     1259
26.92    1253
26.94    1301
26.96    1334
26.98    1265
27.0     1278
27.02    1280
27.04    1265
27.06    1343
27.08    1236
27.1     1304
27.12    1374
27.14    1388
27.16    1475
27.18    1515
27.2     1629
27.22    1726
27.24    1862
27.26    1773
27.28    1524
27.3     1373
27.32    1411
27.34    1385
27.36    1468
27.38    1634
27.4     1836
27.42    2142
27.44    2528
27.46    2783
27.48    2708
27.5     2451
27.52    2267
27.54    2210
27.56    2192
27.58    2085
27.6     2119
27.62    2060
27.64    2170
27.66    2038
27.68    2131
27.7     2097
27.72    2014
27.74    2079
27.76    2183
27.78    2091
27.8     2190
27.82    2020
27.84    2080
27.86    2107
27.88    2181
27.9     2145
27.92    2207
27.94    2161
27.96    2145
27.98    2176
28.0     2224
28.02    2235
28.04    2374
28.06    2384
28.08    2562
28.1     2500
28.12    2717
28.14    2774
28.16    3030
28.18    3440
28.2     3740
28.22    4572
28.24    5513
28.26    6996
28.28    9105
28.3     12142
28.32    16094
28.34    21011
28.36    29845
28.38    43121
28.4     61500
28.42    93247
28.44    130420
28.46    138475
28.48    93925
28.5     69416
28.52    70027
28.54    56126
28.56    25768
28.58    11374
28.6     7112
28.62    5497
28.64    4556
28.66    3983
28.68    3565
28.7     3237
28.72    2957
28.74    2807
28.76    2663
28.78    2646
28.8     2464
28.82    2360
28.84    2255
28.86    2180
28.88    2221
28.9     2173
28.92    2083
28.94    2036
28.96    1998
28.98    1959
29.0     1931
29.02    1940
29.04    1901
29.06    1807
29.08    1837
29.1     1810
29.12    1859
29.14    1792
29.16    1735
29.18    1843
29.2     1753
29.22    1702
29.24    1729
29.26    1748
29.28    1695
29.3     1752
29.32    1683
29.34    1721
29.36    1732
29.38    1699
29.4     1678
29.42    1649
29.44    1598
29.46    1566
29.48    1606
29.5     1639
29.52    1625
29.54    1622
29.56    1548
29.58    1537
29.6     1544
29.62    1529
29.64    1555
29.66    1492
29.68    1531
29.7     1494
29.72    1485
29.74    1560
29.76    1445
29.78    1431
29.8     1472
29.82    1477
29.84    1481
29.86    1453
29.88    1451
29.9     1349
29.92    1469
29.94    1460
29.96    1465
29.98    1476
30.0     1468
30.02    1378
30.04    1415
30.06    1456
30.08    1474
30.1     1437
30.12    1371
30.14    1400
30.16    1415
30.18    1421
30.2     1402
30.22    1413
30.24    1439
30.26    1441
30.28    1462
30.3     1421
30.32    1404
30.34    1353
30.36    1375
30.38    1333
30.4     1359
30.42    1368
30.44    1450
30.46    1456
30.48    1350
30.5     1415
30.52    1311
30.54    1298
30.56    1324
30.58    1352
30.6     1297
30.62    1342
30.64    1303
30.66    1332
30.68    1353
30.7     1320
30.72    1301
30.74    1257
30.76    1246
30.78    1344
30.8     1328
30.82    1302
30.84    1355
30.86    1305
30.88    1381
30.9     1375
30.92    1390
30.94    1430
30.96    1435
30.98    1492
31.0     1554
31.02    1559
31.04    1624
31.06    1623
31.08    1522
31.1     1444
31.12    1389
31.14    1355
31.16    1303
31.18    1316
31.2     1266
31.22    1254
31.24    1158
31.26    1217
31.28    1220
31.3     1281
31.32    1226
31.34    1251
31.36    1258
31.38    1188
31.4     1240
31.42    1154
31.44    1144
31.46    1263
31.48    1206
31.5     1114
31.52    1223
31.54    1162
31.56    1207
31.58    1247
31.6     1162
31.62    1166
31.64    1201
31.66    1111
31.68    1098
31.7     1167
31.72    1125
31.74    1108
31.76    1153
31.78    1194
31.8     1186
31.82    1169
31.84    1114
31.86    1178
31.88    1153
31.9     1133
31.92    1117
31.94    1123
31.96    1155
31.98    1151
32.0     1151
32.02    1067
32.04    1104
32.06    1195
32.08    1173
32.1     1201
32.12    1190
32.14    1101
32.16    1129
32.18    1153
32.2     1171
32.22    1138
32.24    1117
32.26    1118
32.28    1133
32.3     1134
32.32    1165
32.34    1095
32.36    1087
32.38    1108
32.4     1111
32.42    1088
32.44    1123
32.46    1130
32.48    1071
32.5     1150
32.52    1062
32.54    1093
32.56    1110
32.58    1096
32.6     1082
32.62    1091
32.64    1062
32.66    1072
32.68    1041
32.7     1041
32.72    1087
32.74    1105
32.76    1040
32.78    1057
32.8     1104
32.82    1094
32.84    1096
32.86    1129
32.88    1069
32.9     1096
32.92    1184
32.94    1098
32.96    1072
32.98    1111
33.0     1161
33.02    1210
33.04    1234
33.06    1231
33.08    1189
33.1     1233
33.12    1176
33.14    1146
33.16    1080
33.18    1192
33.2     1216
33.22    1263
33.24    1278
33.26    1284
33.28    1135
33.3     1153
33.32    1140
33.34    1053
33.36    1047
33.38    961
33.4     1049
33.42    1034
33.44    1064
33.46    995
33.48    1013
33.5     1017
33.52    1012
33.54    1011
33.56    978
33.58    1020
33.6     995
33.62    1029
33.64    1006
33.66    1000
33.68    1015
33.7     1024
33.72    997
33.74    976
33.76    1007
33.78    949
33.8     1030
33.82    1011
33.84    1049
33.86    960
33.88    1003
33.9     1027
33.92    1007
33.94    991
33.96    989
33.98    1023
34.0     1004
34.02    953
34.04    946
34.06    1027
34.08    979
34.1     972
34.12    986
34.14    951
34.16    967
34.18    977
34.2     956
34.22    949
34.24    954
34.26    937
34.28    973
34.3     921
34.32    1016
34.34    948
34.36    938
34.38    949
34.4     948
34.42    921
34.44    934
34.46    939
34.48    954
34.5     990
34.52    918
34.54    998
34.56    933
34.58    941
34.6     948
34.62    919
34.64    938
34.66    955
34.68    935
34.7     908
34.72    863
34.74    903
34.76    915
34.78    952
34.8     913
34.82    912
34.84    931
34.86    920
34.88    915
34.9     859
34.92    866
34.94    853
34.96    918
34.98    906
35.0     885
35.02    962
35.04    900
35.06    938
35.08    924
35.1     956
35.12    912
35.14    890
35.16    878
35.18    898
35.2     903
35.22    912
35.24    975
35.26    954
35.28    871
35.3     911
35.32    923
35.34    902
35.36    848
35.38    875
35.4     938
35.42    944
35.44    892
35.46    878
35.48    899
35.5     906
35.52    904
35.54    816
35.56    870
35.58    909
35.6     900
35.62    946
35.64    914
35.66    894
35.68    891
35.7     890
35.72    910
35.74    924
35.76    846
35.78    833
35.8     888
35.82    858
35.84    915
35.86    912
35.88    849
35.9     911
35.92    922
35.94    908
35.96    925
35.98    864
36.0     869
36.02    842
36.04    855
36.06    831
36.08    857
36.1     921
36.12    904
36.14    855
36.16    874
36.18    864
36.2     844
36.22    844
36.24    859
36.26    929
36.28    899
36.3     896
36.32    892
36.34    835
36.36    811
36.38    863
36.4     880
36.42    792
36.44    883
36.46    855
36.48    827
36.5     856
36.52    800
36.54    843
36.56    877
36.58    864
36.6     848
36.62    870
36.64    839
36.66    875
36.68    852
36.7     834
36.72    880
36.74    828
36.76    810
36.78    828
36.8     884
36.82    860
36.84    850
36.86    864
36.88    862
36.9     871
36.92    847
36.94    857
36.96    766
36.98    852
37.0     857
37.02    866
37.04    806
37.06    867
37.08    873
37.1     862
37.12    854
37.14    872
37.16    810
37.18    845
37.2     865
37.22    928
37.24    923
37.26    1013
37.28    1056
37.3     1020
37.32    1039
37.34    981
37.36    885
37.38    869
37.4     889
37.42    876
37.44    880
37.46    942
37.48    882
37.5     851
37.52    918
37.54    917
37.56    912
37.58    862
37.6     837
37.62    847
37.64    845
37.66    790
37.68    809
37.7     895
37.72    890
37.74    891
37.76    902
37.78    922
37.8     965
37.82    1007
37.84    947
37.86    1023
37.88    865
37.9     862
37.92    883
37.94    881
37.96    868
37.98    829
38.0     800
38.02    827
38.04    842
38.06    807
38.08    832
38.1     824
38.12    800
38.14    791
38.16    823
38.18    819
38.2     835
38.22    788
38.24    784
38.26    790
38.28    810
38.3     831
38.32    918
38.34    862
38.36    885
38.38    843
38.4     813
38.42    840
38.44    871
38.46    792
38.48    832
38.5     793
38.52    773
38.54    766
38.56    800
38.58    798
38.6     853
38.62    794
38.64    817
38.66    790
38.68    819
38.7     791
38.72    810
38.74    799
38.76    792
38.78    809
38.8     805
38.82    822
38.84    862
38.86    845
38.88    817
38.9     840
38.92    927
38.94    943
38.96    1028
38.98    1111
39.0     1199
39.02    1111
39.04    982
39.06    910
39.08    859
39.1     859
39.12    779
39.14    794
39.16    848
39.18    855
39.2     829
39.22    826
39.24    827
39.26    827
39.28    813
39.3     804
39.32    796
39.34    796
39.36    773
39.38    799
39.4     796
39.42    753
39.44    760
39.46    822
39.48    804
39.5     797
39.52    814
39.54    818
39.56    821
39.58    914
39.6     834
39.62    846
39.64    871
39.66    906
39.68    846
39.7     826
39.72    806
39.74    825
39.76    711
39.78    749
39.8     729
39.82    804
39.84    783
39.86    780
39.88    778
39.9     775
39.92    835
39.94    807
39.96    756
39.98    781
40.0     747
40.02    754
40.04    779
40.06    796
40.08    782
40.1     777
40.12    742
40.14    736
40.16    769
40.18    767
40.2     763
40.22    811
40.24    802
40.26    767
40.28    731
40.3     773
40.32    715
40.34    813
40.36    795
40.38    749
40.4     751
40.42    747
40.44    788
40.46    704
40.48    767
40.5     723
40.52    737
40.54    744
40.56    775
40.58    744
40.6     714
40.62    748
40.64    741
40.66    733
40.68    730
40.7     721
40.72    747
40.74    800
40.76    768
40.78    705
40.8     763
40.82    771
40.84    762
40.86    760
40.88    729
40.9     725
40.92    765
40.94    747
40.96    749
40.98    733
41.0     750
41.02    726
41.04    717
41.06    716
41.08    702
41.1     740
41.12    726
41.14    673
41.16    756
41.18    733
41.2     705
41.22    727
41.24    695
41.26    749
41.28    764
41.3     695
41.32    688
41.34    660
41.36    738
41.38    716
41.4     741
41.42    726
41.44    698
41.46    729
41.48    739
41.5     742
41.52    742
41.54    651
41.56    706
41.58    716
41.6     699
41.62    723
41.64    733
41.66    728
41.68    682
41.7     701
41.72    754
41.74    691
41.76    720
41.78    697
41.8     758
41.82    707
41.84    711
41.86    704
41.88    689
41.9     715
41.92    697
41.94    750
41.96    721
41.98    723
42.0     735
42.02    706
42.04    685
42.06    716
42.08    742
42.1     757
42.12    684
42.14    693
42.16    756
42.18    735
42.2     716
42.22    711
42.24    744
42.26    712
42.28    759
42.3     773
42.32    740
42.34    729
42.36    703
42.38    780
42.4     835
42.42    802
42.44    890
42.46    989
42.48    1093
42.5     1236
42.52    1312
42.54    1136
42.56    1024
42.58    873
42.6     760
42.62    759
42.64    717
42.66    778
42.68    727
42.7     718
42.72    737
42.74    756
42.76    722
42.78    722
42.8     739
42.82    782
42.84    723
42.86    716
42.88    809
42.9     729
42.92    717
42.94    701
42.96    720
42.98    728
43.0     718
43.02    693
43.04    735
43.06    720
43.08    742
43.1     712
43.12    773
43.14    727
43.16    707
43.18    739
43.2     738
43.22    721
43.24    736
43.26    723
43.28    726
43.3     744
43.32    747
43.34    759
43.36    760
43.38    780
43.4     768
43.42    711
43.44    687
43.46    701
43.48    800
43.5     698
43.52    690
43.54    738
43.56    740
43.58    709
43.6     707
43.62    720
43.64    672
43.66    719
43.68    680
43.7     708
43.72    714
43.74    742
43.76    747
43.78    689
43.8     703
43.82    712
43.84    662
43.86    689
43.88    742
43.9     707
43.92    745
43.94    660
43.96    701
43.98    711
44.0     737
44.02    708
44.04    698
44.06    746
44.08    698
44.1     698
44.12    702
44.14    693
44.16    767
44.18    720
44.2     693
44.22    742
44.24    730
44.26    735
44.28    709
44.3     701
44.32    709
44.34    742
44.36    765
44.38    729
44.4     731
44.42    708
44.44    789
44.46    720
44.48    770
44.5     769
44.52    759
44.54    792
44.56    743
44.58    756
44.6     801
44.62    764
44.64    804
44.66    854
44.68    864
44.7     803
44.72    801
44.74    777
44.76    751
44.78    735
44.8     710
44.82    776
44.84    730
44.86    722
44.88    715
44.9     698
44.92    755
44.94    715
44.96    730
44.98    722
45.0     767
45.02    716
45.04    737
45.06    764
45.08    746
45.1     753
45.12    760
45.14    787
45.16    851
45.18    889
45.2     946
45.22    961
45.24    994
45.26    965
45.28    841
45.3     797
45.32    826
45.34    773
45.36    774
45.38    785
45.4     837
45.42    814
45.44    858
45.46    867
45.48    786
45.5     818
45.52    826
45.54    925
45.56    1001
45.58    1242
45.6     1349
45.62    1390
45.64    1246
45.66    1104
45.68    1148
45.7     1089
45.72    1091
45.74    1055
45.76    995
45.78    1017
45.8     999
45.82    1011
45.84    983
45.86    966
45.88    972
45.9     972
45.92    962
45.94    1014
45.96    969
45.98    991
46.0     1018
46.02    1039
46.04    1081
46.06    1138
46.08    1171
46.1     1078
46.12    1066
46.14    1017
46.16    969
46.18    976
46.2     1007
46.22    993
46.24    960
46.26    1021
46.28    958
46.3     1006
46.32    1008
46.34    1051
46.36    1015
46.38    1003
46.4     1020
46.42    973
46.44    981
46.46    1011
46.48    973
46.5     1048
46.52    998
46.54    1047
46.56    1048
46.58    1073
46.6     1018
46.62    1015
46.64    1039
46.66    1118
46.68    1113
46.7     1115
46.72    1150
46.74    1164
46.76    1146
46.78    1158
46.8     1174
46.82    1243
46.84    1188
46.86    1257
46.88    1298
46.9     1316
46.92    1331
46.94    1498
46.96    1497
46.98    1613
47.0     1667
47.02    1930
47.04    2069
47.06    2279
47.08    2529
47.1     2869
47.12    3043
47.14    3505
47.16    4211
47.18    5505
47.2     7447
47.22    11358
47.24    17154
47.26    27230
47.28    43676
47.3     64042
47.32    68833
47.34    44587
47.36    24501
47.38    19989
47.4     23996
47.42    32394
47.44    36455
47.46    26205
47.48    13342
47.5     7170
47.52    4849
47.54    3615
47.56    2992
47.58    2613
47.6     2328
47.62    2096
47.64    1961
47.66    1752
47.68    1679
47.7     1672
47.72    1528
47.74    1385
47.76    1374
47.78    1305
47.8     1279
47.82    1260
47.84    1236
47.86    1209
47.88    1249
47.9     1144
47.92    1127
47.94    1157
47.96    1121
47.98    1077
48.0     1033
48.02    1083
48.04    1109
48.06    1054
48.08    1033
48.1     1069
48.12    982
48.14    1040
48.16    991
48.18    992
48.2     998
48.22    1006
48.24    958
48.26    941
48.28    953
48.3     914
48.32    943
48.34    1002
48.36    909
48.38    911
48.4     926
48.42    981
48.44    859
48.46    962
48.48    964
48.5     908
48.52    904
48.54    913
48.56    892
48.58    895
48.6     884
48.62    857
48.64    895
48.66    848
48.68    825
48.7     891
48.72    862
48.74    889
48.76    840
48.78    899
48.8     892
48.82    869
48.84    931
48.86    844
48.88    850
48.9     829
48.92    842
48.94    822
48.96    829
48.98    830
49.0     844
49.02    782
49.04    792
49.06    843
49.08    868
49.1     835
49.12    845
49.14    830
49.16    821
49.18    778
49.2     808
49.22    786
49.24    792
49.26    734
49.28    761
49.3     833
49.32    830
49.34    762
49.36    825
49.38    815
49.4     798
49.42    712
49.44    805
49.46    808
49.48    767
49.5     790
49.52    736
49.54    782
49.56    755
49.58    775
49.6     764
49.62    798
49.64    781
49.66    753
49.68    761
49.7     772
49.72    798
49.74    734
49.76    780
49.78    762
49.8     771
49.82    743
49.84    782
49.86    758
49.88    784
49.9     753
49.92    750
49.94    732
49.96    781
49.98    791
50.0     724
50.02    722
50.04    814
50.06    772
50.08    797
50.1     807
50.12    742
50.14    776
50.16    716
50.18    777
50.2     776
50.22    805
50.24    827
50.26    813
50.28    918
50.3     1038
50.32    1110
50.34    990
50.36    886
50.38    825
50.4     792
50.42    817
50.44    747
50.46    776
50.48    777
50.5     778
50.52    731
50.54    722
50.56    715
50.58    723
50.6     714
50.62    694
50.64    746
50.66    768
50.68    755
50.7     744
50.72    723
50.74    738
50.76    735
50.78    705
50.8     734
50.82    752
50.84    722
50.86    770
50.88    758
50.9     772
50.92    716
50.94    699
50.96    766
50.98    718
51.0     748
51.02    714
51.04    708
51.06    734
51.08    742
51.1     723
51.12    724
51.14    674
51.16    688
51.18    733
51.2     680
51.22    708
51.24    688
51.26    697
51.28    703
51.3     692
51.32    688
51.34    703
51.36    728
51.38    700
51.4     712
51.42    687
51.44    671
51.46    736
51.48    704
51.5     706
51.52    716
51.54    725
51.56    718
51.58    695
51.6     716
51.62    784
51.64    788
51.66    744
51.68    774
51.7     723
51.72    804
51.74    742
51.76    773
51.78    816
51.8     823
51.82    829
51.84    818
51.86    829
51.88    827
51.9     762
51.92    817
51.94    687
51.96    711
51.98    725
52.0     690
52.02    769
52.04    680
52.06    717
52.08    701
52.1     678
52.12    675
52.14    686
52.16    707
52.18    654
52.2     663
52.22    735
52.24    692
52.26    730
52.28    628
52.3     679
52.32    721
52.34    698
52.36    737
52.38    708
52.4     687
52.42    657
52.44    631
52.46    650
52.48    644
52.5     709
52.52    661
52.54    664
52.56    628
52.58    660
52.6     693
52.62    652
52.64    666
52.66    588
52.68    646
52.7     725
52.72    675
52.74    673
52.76    715
52.78    707
52.8     638
52.82    588
52.84    683
52.86    671
52.88    652
52.9     660
52.92    645
52.94    633
52.96    613
52.98    669
53.0     663
53.02    596
53.04    652
53.06    653
53.08    638
53.1     600
53.12    625
53.14    645
53.16    649
53.18    634
53.2     648
53.22    684
53.24    674
53.26    664
53.28    660
53.3     597
53.32    627
53.34    669
53.36    673
53.38    681
53.4     674
53.42    620
53.44    666
53.46    720
53.48    679
53.5     661
53.52    692
53.54    732
53.56    741
53.58    787
53.6     812
53.62    760
53.64    717
53.66    642
53.68    679
53.7     634
53.72    671
53.74    700
53.76    638
53.78    625
53.8     612
53.82    635
53.84    668
53.86    665
53.88    665
53.9     692
53.92    697
53.94    633
53.96    674
53.98    730
54.0     833
54.02    852
54.04    905
54.06    954
54.08    1017
54.1     902
54.12    816
54.14    862
54.16    839
54.18    794
54.2     802
54.22    775
54.24    721
54.26    793
54.28    729
54.3     737
54.32    759
54.34    798
54.36    760
54.38    735
54.4     740
54.42    713
54.44    763
54.46    746
54.48    776
54.5     744
54.52    754
54.54    732
54.56    811
54.58    811
54.6     715
54.62    779
54.64    732
54.66    757
54.68    727
54.7     714
54.72    682
54.74    704
54.76    721
54.78    777
54.8     716
54.82    768
54.84    722
54.86    770
54.88    775
54.9     715
54.92    798
54.94    772
54.96    764
54.98    770
55.0     743
55.02    780
55.04    809
55.06    754
55.08    710
55.1     742
55.12    821
55.14    805
55.16    742
55.18    754
55.2     767
55.22    809
55.24    760
55.26    758
55.28    833
55.3     753
55.32    812
55.34    761
55.36    795
55.38    808
55.4     826
55.42    778
55.44    807
55.46    829
55.48    854
55.5     856
55.52    840
55.54    859
55.56    930
55.58    919
55.6     864
55.62    932
55.64    868
55.66    953
55.68    982
55.7     1003
55.72    983
55.74    1087
55.76    1095
55.78    1142
55.8     1210
55.82    1277
55.84    1489
55.86    1522
55.88    1596
55.9     1713
55.92    1877
55.94    1937
55.96    2238
55.98    2604
56.0     3202
56.02    4262
56.04    6057
56.06    9458
56.08    14997
56.1     23839
56.12    34985
56.14    37565
56.16    24752
56.18    13283
56.2     9074
56.22    9044
56.24    11415
56.26    15848
56.28    19725
56.3     17430
56.32    10214
56.34    5594
56.36    3552
56.38    2661
56.4     2175
56.42    1829
56.44    1614
56.46    1499
56.48    1349
56.5     1289
56.52    1179
56.54    1086
56.56    1110
56.58    1045
56.6     994
56.62    977
56.64    990
56.66    949
56.68    937
56.7     897
56.72    860
56.74    883
56.76    820
56.78    870
56.8     788
56.82    826
56.84    815
56.86    797
56.88    763
56.9     797
56.92    760
56.94    755
56.96    738
56.98    713
57.0     726
57.02    729
57.04    728
57.06    694
57.08    700
57.1     697
57.12    635
57.14    669
57.16    709
57.18    759
57.2     696
57.22    691
57.24    740
57.26    719
57.28    677
57.3     673
57.32    662
57.34    701
57.36    665
57.38    655
57.4     681
57.42    679
57.44    643
57.46    673
57.48    641
57.5     590
57.52    675
57.54    627
57.56    605
57.58    696
57.6     642
57.62    629
57.64    668
57.66    686
57.68    608
57.7     645
57.72    650
57.74    620
57.76    575
57.78    597
57.8     594
57.82    627
57.84    602
57.86    625
57.88    606
57.9     633
57.92    644
57.94    609
57.96    594
57.98    557
58.0     656
58.02    608
58.04    607
58.06    613
58.08    609
58.1     574
58.12    610
58.14    595
58.16    587
58.18    617
58.2     599
58.22    605
58.24    602
58.26    572
58.28    600
58.3     602
58.32    558
58.34    566
58.36    617
58.38    577
58.4     590
58.42    619
58.44    623
58.46    631
58.48    657
58.5     624
58.52    617
58.54    631
58.56    629
58.58    559
58.6     591
58.62    586
58.64    543
58.66    613
58.68    610
58.7     602
58.72    568
58.74    567
58.76    564
58.78    592
58.8     558
58.82    569
58.84    618
58.86    596
58.88    621
58.9     641
58.92    615
58.94    580
58.96    566
58.98    570
59.0     532
59.02    580
59.04    582
59.06    564
59.08    597
59.1     579
59.12    563
59.14    536
59.16    567
59.18    556
59.2     594
59.22    556
59.24    544
59.26    557
59.28    564
59.3     546
59.32    577
59.34    572
59.36    546
59.38    575
59.4     607
59.42    574
59.44    569
59.46    558
59.48    547
59.5     533
59.52    553
59.54    570
59.56    562
59.58    557
59.6     539
59.62    548
59.64    553
59.66    575
59.68    514
59.7     517
59.72    562
59.74    536
59.76    574
59.78    550
59.8     541
59.82    583
59.84    547
59.86    556
59.88    539
59.9     600
59.92    568
59.94    553
59.96    561
59.98    604
60.0     521
60.02    576
60.04    573
60.06    500
60.08    549
60.1     543
60.12    545
60.14    534
60.16    589
60.18    520
60.2     569
60.22    581
60.24    555
60.26    555
60.28    512
60.3     518
60.32    515
60.34    520
60.36    554
60.38    522
60.4     468
60.42    548
60.44    575
60.46    498
60.48    529
60.5     546
60.52    538
60.54    537
60.56    538
60.58    542
60.6     561
60.62    566
60.64    555
60.66    585
60.68    604
60.7     543
60.72    504
60.74    541
60.76    503
60.78    495
60.8     544
60.82    533
60.84    561
60.86    544
60.88    558
60.9     549
60.92    536
60.94    526
60.96    543
60.98    534
61.0     536
61.02    525
61.04    511
61.06    563
61.08    564
61.1     524
61.12    474
61.14    501
61.16    537
61.18    549
61.2     496
61.22    492
61.24    510
61.26    486
61.28    524
61.3     541
61.32    542
61.34    506
61.36    511
61.38    566
61.4     491
61.42    538
61.44    537
61.46    547
61.48    557
61.5     533
61.52    535
61.54    527
61.56    587
61.58    568
61.6     585
61.62    628
61.64    568
61.66    630
61.68    618
61.7     597
61.72    651
61.74    588
61.76    631
61.78    590
61.8     558
61.82    501
61.84    519
61.86    523
61.88    585
61.9     569
61.92    568
61.94    549
61.96    549
61.98    558
62.0     531
62.02    539
62.04    488
62.06    497
62.08    499
62.1     510
62.12    494
62.14    536
62.16    557
62.18    488
62.2     492
62.22    519
62.24    543
62.26    517
62.28    489
62.3     500
62.32    473
62.34    520
62.36    565
62.38    482
62.4     450
62.42    467
62.44    483
62.46    539
62.48    497
62.5     491
62.52    480
62.54    470
62.56    486
62.58    475
62.6     502
62.62    485
62.64    478
62.66    487
62.68    468
62.7     507
62.72    496
62.74    480
62.76    499
62.78    453
62.8     522
62.82    455
62.84    483
62.86    488
62.88    487
62.9     513
62.92    492
62.94    493
62.96    491
62.98    469
63.0     516
63.02    505
63.04    478
63.06    514
63.08    475
63.1     459
63.12    502
63.14    463
63.16    488
63.18    470
63.2     450
63.22    502
63.24    501
63.26    513
63.28    547
63.3     511
63.32    455
63.34    517
63.36    462
63.38    465
63.4     491
63.42    496
63.44    467
63.46    482
63.48    468
63.5     494
63.52    409
63.54    472
63.56    477
63.58    515
63.6     471
63.62    487
63.64    542
63.66    474
63.68    457
63.7     469
63.72    437
63.74    482
63.76    514
63.78    471
63.8     468
63.82    481
63.84    520
63.86    462
63.88    481
63.9     499
63.92    459
63.94    459
63.96    466
63.98    464
64.0     469
64.02    472
64.04    447
64.06    455
64.08    468
64.1     450
64.12    469
64.14    493
64.16    468
64.18    504
64.2     473
64.22    501
64.24    452
64.26    426
64.28    451
64.3     482
64.32    483
64.34    490
64.36    486
64.38    463
64.4     500
64.42    490
64.44    440
64.46    477
64.48    446
64.5     493
64.52    451
64.54    473
64.56    482
64.58    464
64.6     474
64.62    457
64.64    482
64.66    455
64.68    462
64.7     427
64.72    445
64.74    466
64.76    488
64.78    454
64.8     446
64.82    453
64.84    480
64.86    482
64.88    489
64.9     464
64.92    484
64.94    495
64.96    436
64.98    434
65.0     448
65.02    481
65.04    465
65.06    483
65.08    491
65.1     478
65.12    471
65.14    477
65.16    463
65.18    446
65.2     470
65.22    462
65.24    466
65.26    444
65.28    485
65.3     465
65.32    432
65.34    479
65.36    468
65.38    447
65.4     407
65.42    485
65.44    472
65.46    448
65.48    464
65.5     452
65.52    455
65.54    434
65.56    466
65.58    447
65.6     446
65.62    468
65.64    443
65.66    449
65.68    463
65.7     463
65.72    480
65.74    476
65.76    451
65.78    426
65.8     490
65.82    467
65.84    511
65.86    478
65.88    473
65.9     476
65.92    478
65.94    436
65.96    443
65.98    469
66.0     449
66.02    431
66.04    455
66.06    443
66.08    434
66.1     411
66.12    449
66.14    478
66.16    440
66.18    459
66.2     422
66.22    462
66.24    434
66.26    483
66.28    470
66.3     469
66.32    428
66.34    461
66.36    472
66.38    469
66.4     493
66.42    507
66.44    497
66.46    517
66.48    471
66.5     470
66.52    494
66.54    474
66.56    524
66.58    446
66.6     511
66.62    465
66.64    496
66.66    417
66.68    494
66.7     461
66.72    465
66.74    486
66.76    447
66.78    487
66.8     475
66.82    437
66.84    466
66.86    501
66.88    473
66.9     473
66.92    442
66.94    462
66.96    446
66.98    484
67.0     483
67.02    479
67.04    473
67.06    487
67.08    446
67.1     429
67.12    453
67.14    435
67.16    461
67.18    468
67.2     474
67.22    449
67.24    452
67.26    469
67.28    449
67.3     476
67.32    482
67.34    472
67.36    479
67.38    465
67.4     484
67.42    489
67.44    451
67.46    497
67.48    479
67.5     439
67.52    485
67.54    477
67.56    442
67.58    473
67.6     466
67.62    454
67.64    472
67.66    443
67.68    468
67.7     458
67.72    447
67.74    482
67.76    485
67.78    467
67.8     490
67.82    486
67.84    483
67.86    506
67.88    483
67.9     563
67.92    566
67.94    621
67.96    562
67.98    510
68.0     515
68.02    527
68.04    515
68.06    490
68.08    500
68.1     477
68.12    457
68.14    494
68.16    487
68.18    477
68.2     515
68.22    536
68.24    526
68.26    478
68.28    528
68.3     540
68.32    490
68.34    516
68.36    487
68.38    465
68.4     493
68.42    505
68.44    484
68.46    472
68.48    512
68.5     506
68.52    533
68.54    561
68.56    484
68.58    495
68.6     516
68.62    567
68.64    495
68.66    500
68.68    528
68.7     568
68.72    555
68.74    574
68.76    624
68.78    635
68.8     618
68.82    639
68.84    623
68.86    635
68.88    730
68.9     725
68.92    731
68.94    770
68.96    832
68.98    867
69.0     1053
69.02    1206
69.04    1600
69.06    2106
69.08    3124
69.1     4790
69.12    7076
69.14    8468
69.16    6906
69.18    4461
69.2     2781
69.22    2073
69.24    1808
69.26    1913
69.28    2325
69.3     3131
69.32    4212
69.34    4532
69.36    3652
69.38    2351
69.4     1516
69.42    1168
69.44    1018
69.46    839
69.48    765
69.5     699
69.52    649
69.54    604
69.56    620
69.58    586
69.6     608
69.62    577
69.64    600
69.66    489
69.68    528
69.7     518
69.72    526
69.74    548
69.76    494
69.78    473
69.8     495
69.82    526
69.84    502
69.86    469
69.88    472
69.9     511
69.92    468
69.94    465
69.96    481
69.98    480
70.0     466
70.02    473
70.04    486
70.06    452
70.08    495
70.1     487
70.12    446
70.14    461
70.16    448
70.18    459
70.2     441
70.22    471
70.24    462
70.26    455
70.28    485
70.3     439
70.32    471
70.34    452
70.36    404
70.38    448
70.4     442
70.42    433
70.44    460
70.46    421
70.48    446
70.5     447
70.52    501
70.54    438
70.56    495
70.58    511
70.6     459
70.62    505
70.64    525
70.66    507
70.68    517
70.7     473
70.72    431
70.74    453
70.76    460
70.78    441
70.8     445
70.82    460
70.84    423
70.86    441
70.88    440
70.9     445
70.92    429
70.94    414
70.96    473
70.98    432
71.0     456
71.02    401
71.04    434
71.06    464
71.08    450
71.1     405
71.12    448
71.14    429
71.16    424
71.18    434
71.2     421
71.22    472
71.24    482
71.26    470
71.28    416
71.3     432
71.32    397
71.34    448
71.36    424
71.38    438
71.4     449
71.42    432
71.44    406
71.46    395
71.48    396
71.5     447
71.52    428
71.54    458
71.56    429
71.58    370
71.6     438
71.62    467
71.64    421
71.66    430
71.68    416
71.7     424
71.72    432
71.74    468
71.76    435
71.78    492
71.8     433
71.82    447
71.84    413
71.86    393
71.88    438
71.9     431
71.92    442
71.94    426
71.96    431
71.98    404
72.0     392
72.02    432
72.04    418
72.06    435
72.08    425
72.1     432
72.12    405
72.14    401
72.16    415
72.18    417
72.2     437
72.22    414
72.24    445
72.26    469
72.28    428
72.3     391
72.32    439
72.34    383
72.36    436
72.38    463
72.4     416
72.42    439
72.44    415
72.46    416
72.48    422
72.5     396
72.52    438
72.54    443
72.56    415
72.58    421
72.6     444
72.62    458
72.64    428
72.66    488
72.68    442
72.7     469
72.72    464
72.74    453
72.76    436
72.78    403
72.8     407
72.82    432
72.84    451
72.86    408
72.88    406
72.9     407
72.92    439
72.94    420
72.96    413
72.98    427
73.0     413
73.02    439
73.04    441
73.06    430
73.08    438
73.1     472
73.12    408
73.14    407
73.16    401
73.18    411
73.2     426
73.22    423
73.24    427
73.26    467
73.28    511
73.3     490
73.32    519
73.34    552
73.36    548
73.38    489
73.4     523
73.42    530
73.44    493
73.46    485
73.48    462
73.5     534
73.52    469
73.54    483
73.56    488
73.58    451
73.6     426
73.62    447
73.64    432
73.66    489
73.68    451
73.7     433
73.72    480
73.74    434
73.76    468
73.78    388
73.8     444
73.82    452
73.84    436
73.86    427
73.88    461
73.9     467
73.92    465
73.94    436
73.96    480
73.98    454
74.0     453
74.02    447
74.04    432
74.06    453
74.08    443
74.1     479
74.12    432
74.14    448
74.16    451
74.18    490
74.2     439
74.22    440
74.24    459
74.26    477
74.28    459
74.3     466
74.32    419
74.34    511
74.36    492
74.38    440
74.4     428
74.42    436
74.44    435
74.46    431
74.48    417
74.5     445
74.52    480
74.54    475
74.56    430
74.58    467
74.6     413
74.62    452
74.64    440
74.66    407
74.68    426
74.7     492
74.72    458
74.74    484
74.76    443
74.78    471
74.8     466
74.82    453
74.84    455
74.86    443
74.88    448
74.9     431
74.92    451
74.94    456
74.96    455
74.98    446
75.0     436
75.02    467
75.04    455
75.06    454
75.08    461
75.1     485
75.12    479
75.14    466
75.16    422
75.18    470
75.2     443
75.22    426
75.24    466
75.26    466
75.28    452
75.3     480
75.32    504
75.34    463
75.36    458
75.38    474
75.4     469
75.42    444
75.44    469
75.46    516
75.48    485
75.5     477
75.52    461
75.54    534
75.56    493
75.58    522
75.6     475
75.62    517
75.64    576
75.66    536
75.68    526
75.7     539
75.72    545
75.74    542
75.76    562
75.78    530
75.8     566
75.82    535
75.84    612
75.86    601
75.88    582
75.9     593
75.92    618
75.94    659
75.96    676
75.98    662
76.0     690
76.02    701
76.04    682
76.06    744
76.08    743
76.1     757
76.12    783
76.14    868
76.16    867
76.18    996
76.2     1008
76.22    1151
76.24    1353
76.26    1656
76.28    2056
76.3     2939
76.32    4286
76.34    6893
76.36    10832
76.38    14744
76.4     14022
76.42    9403
76.44    5694
76.46    3585
76.48    2697
76.5     2338
76.52    2531
76.54    2829
76.56    3804
76.58    5449
76.6     7270
76.62    7486
76.64    5637
76.66    3615
76.68    2314
76.7     1730
76.72    1376
76.74    1112
76.76    962
76.78    864
76.8     862
76.82    761
76.84    698
76.86    668
76.88    689
76.9     639
76.92    659
76.94    629
76.96    636
76.98    575
77.0     611
77.02    556
77.04    550
77.06    504
77.08    499
77.1     554
77.12    591
77.14    536
77.16    502
77.18    486
77.2     510
77.22    524
77.24    522
77.26    503
77.28    515
77.3     482
77.32    535
77.34    500
77.36    483
77.38    481
77.4     466
77.42    494
77.44    511
77.46    458
77.48    460
77.5     459
77.52    453
77.54    457
77.56    498
77.58    455
77.6     435
77.62    452
77.64    490
77.66    468
77.68    443
77.7     492
77.72    502
77.74    461
77.76    541
77.78    545
77.8     585
77.82    587
77.84    523
77.86    515
77.88    502
77.9     476
77.92    481
77.94    449
77.96    464
77.98    470
78.0     465
78.02    458
78.04    421
78.06    491
78.08    444
78.1     468
78.12    461
78.14    459
78.16    460
78.18    431
78.2     418
78.22    411
78.24    458
78.26    450
78.28    416
78.3     400
78.32    428
78.34    433
78.36    418
78.38    425
78.4     428
78.42    417
78.44    417
78.46    420
78.48    431
78.5     421
78.52    385
78.54    430
78.56    496
78.58    453
78.6     412
78.62    452
78.64    419
78.66    453
78.68    448
78.7     413
78.72    427
78.74    399
78.76    399
78.78    440
78.8     459
78.82    415
78.84    433
78.86    416
78.88    425
78.9     428
78.92    421
78.94    422
78.96    445
78.98    447
79.0     418
79.02    394
79.04    419
79.06    429
79.08    447
79.1     434
79.12    442
79.14    417
79.16    398
79.18    430
79.2     415
79.22    428
79.24    424
79.26    442
79.28    420
79.3     454
79.32    414
79.34    458
79.36    451
79.38    463
79.4     428
79.42    420
79.44    424
79.46    421
79.48    422
79.5     412
79.52    444
79.54    457
79.56    424
79.58    404
79.6     421
79.62    443
79.64    422
79.66    405
79.68    399
79.7     444
79.72    400
79.74    436
79.76    412
79.78    387
79.8     391
79.82    425
79.84    391
79.86    419
79.88    441
79.9     394
79.92    425
79.94    391
79.96    433
79.98    471
80.0     411
80.02    378
80.04    399
80.06    437
80.08    482
80.1     420
80.12    415
80.14    436
80.16    436
80.18    448
80.2     432
80.22    380
80.24    426
80.26    442
80.28    411
80.3     420
80.32    426
80.34    432
80.36    465
80.38    414
80.4     442
80.42    409
80.44    403
80.46    377
80.48    440
80.5     411
80.52    428
80.54    393
80.56    405
80.58    419
80.6     414
80.62    412
80.64    417
80.66    431
80.68    415
80.7     428
80.72    400
80.74    419
80.76    426
80.78    410
80.8     393
80.82    363
80.84    427
80.86    406
80.88    384
80.9     405
80.92    408
80.94    400
80.96    420
80.98    427
81.0     425
81.02    405
81.04    428
81.06    393
81.08    429
81.1     373
81.12    392
81.14    440
81.16    410
81.18    402
81.2     392
81.22    426
81.24    387
81.26    416
81.28    400
81.3     411
81.32    415
81.34    376
81.36    414
81.38    433
81.4     401
81.42    407
81.44    414
81.46    409
81.48    450
81.5     428
81.52    436
81.54    460
81.56    436
81.58    400
81.6     426
81.62    410
81.64    406
81.66    402
81.68    385
81.7     409
81.72    403
81.74    410
81.76    427
81.78    411
81.8     403
81.82    421
81.84    410
81.86    399
81.88    436
81.9     441
81.92    422
81.94    417
81.96    387
81.98    416
82.0     452
82.02    383
82.04    395
82.06    404
82.08    402
82.1     407
82.12    456
82.14    395
82.16    402
82.18    398
82.2     412
82.22    420
82.24    408
82.26    376
82.28    381
82.3     425
82.32    397
82.34    395
82.36    424
82.38    421
82.4     412
82.42    417
82.44    447
82.46    429
82.48    427
82.5     389
82.52    413
82.54    384
82.56    427
82.58    398
82.6     430
82.62    405
82.64    373
82.66    422
82.68    398
82.7     419
82.72    408
82.74    404
82.76    395
82.78    377
82.8     411
82.82    425
82.84    387
82.86    369
82.88    417
82.9     427
82.92    429
82.94    416
82.96    445
82.98    374
83.0     394
83.02    407
83.04    387
83.06    420
83.08    385
83.1     433
83.12    431
83.14    405
83.16    408
83.18    421
83.2     417
83.22    401
83.24    405
83.26    428
83.28    424
83.3     383
83.32    405
83.34    400
83.36    414
83.38    434
83.4     449
83.42    483
83.44    457
83.46    489
83.48    545
83.5     531
83.52    552
83.54    522
83.56    524
83.58    454
83.6     451
83.62    434
83.64    459
83.66    401
83.68    451
83.7     405
83.72    426
83.74    408
83.76    435
83.78    403
83.8     439
83.82    416
83.84    397
83.86    429
83.88    448
83.9     393
83.92    403
83.94    434
83.96    373
83.98    400
84.0     403
84.02    409
84.04    432
84.06    430
84.08    389
84.1     425
84.12    433
84.14    399
84.16    401
84.18    445
84.2     406
84.22    454
84.24    439
84.26    491
84.28    470
84.3     488
84.32    515
84.34    525
84.36    488
84.38    519
84.4     488
84.42    484
84.44    456
84.46    478
84.48    455
84.5     476
84.52    446
84.54    440
84.56    434
84.58    492
84.6     435
84.62    469
84.64    486
84.66    505
84.68    427
84.7     478
84.72    508
84.74    488
84.76    483
84.78    489
84.8     470
84.82    484
84.84    430
84.86    458
84.88    475
84.9     450
84.92    441
84.94    474
84.96    434
84.98    454
85.0     458
85.02    465
85.04    469
85.06    417
85.08    388
85.1     442
85.12    472
85.14    408
85.16    428
85.18    477
85.2     409
85.22    428
85.24    404
85.26    458
85.28    463
85.3     454
85.32    433
85.34    441
85.36    437
85.38    417
85.4     447
85.42    450
85.44    405
85.46    418
85.48    437
85.5     431
85.52    492
85.54    462
85.56    461
85.58    423
85.6     497
85.62    455
85.64    428
85.66    488
85.68    426
85.7     458
85.72    453
85.74    409
85.76    415
85.78    432
85.8     469
85.82    476
85.84    472
85.86    444
85.88    409
85.9     456
85.92    396
85.94    439
85.96    445
85.98    482
86.0     432
86.02    463
86.04    446
86.06    428
86.08    475
86.1     438
86.12    436
86.14    415
86.16    444
86.18    443
86.2     459
86.22    449
86.24    472
86.26    425
86.28    473
86.3     477
86.32    465
86.34    464
86.36    474
86.38    481
86.4     419
86.42    454
86.44    462
86.46    467
86.48    486
86.5     459
86.52    430
86.54    458
86.56    455
86.58    454
86.6     440
86.62    452
86.64    440
86.66    474
86.68    470
86.7     465
86.72    470
86.74    416
86.76    493
86.78    451
86.8     470
86.82    475
86.84    510
86.86    480
86.88    486
86.9     449
86.92    454
86.94    494
86.96    454
86.98    463
87.0     467
87.02    536
87.04    461
87.06    521
87.08    520
87.1     481
87.12    483
87.14    454
87.16    509
87.18    511
87.2     522
87.22    476
87.24    500
87.26    468
87.28    490
87.3     481
87.32    543
87.34    543
87.36    543
87.38    537
87.4     530
87.42    581
87.44    593
87.46    568
87.48    628
87.5     625
87.52    649
87.54    700
87.56    668
87.58    698
87.6     734
87.62    703
87.64    740
87.66    772
87.68    730
87.7     773
87.72    841
87.74    857
87.76    882
87.78    944
87.8     999
87.82    1114
87.84    1202
87.86    1381
87.88    1475
87.9     1813
87.92    2316
87.94    2935
87.96    3994
87.98    6028
88.0     9291
88.02    13977
88.04    17520
88.06    15489
88.08    10387
88.1     6848
88.12    4482
88.14    3445
88.16    2721
88.18    2447
88.2     2405
88.22    2444
88.24    3167
88.26    4078
88.28    5735
88.3     7858
88.32    8846
88.34    7502
88.36    5320
88.38    3594
88.4     2502
88.42    1957
88.44    1528
88.46    1314
88.48    1103
88.5     1051
88.52    968
88.54    903
88.56    828
88.58    805
88.6     776
88.62    778
88.64    781
88.66    651
88.68    645
88.7     632
88.72    632
88.74    589
88.76    531
88.78    570
88.8     618
88.82    567
88.84    568
88.86    570
88.88    546
88.9     530
88.92    537
88.94    533
88.96    535
88.98    514
89.0     521
89.02    491
89.04    477
89.06    500
89.08    525
89.1     486
89.12    491
89.14    462
89.16    474
89.18    489
89.2     467
89.22    512
89.24    477
89.26    463
89.28    450
89.3     502
89.32    461
89.34    451
89.36    487
89.38    492
89.4     486
89.42    439
89.44    456
89.46    455
89.48    445
89.5     463
89.52    439
89.54    465
89.56    488
89.58    439
89.6     445
89.62    473
89.64    482
89.66    442
89.68    425
89.7     414
89.72    480
89.74    458
89.76    466
89.78    443
89.8     473
89.82    449
89.84    440
89.86    485
89.88    463
89.9     459
89.92    490
89.94    406
89.96    449
89.98    439
90.0     442
