?
5.0      751
5.02     751
5.04     971
5.06     968
5.08     923
5.1      958
5.12     933
5.14     986
5.16     958
5.18     927
5.2      911
5.22     954
5.24     965
5.26     966
5.28     1002
5.3      1008
5.32     1048
5.34     1064
5.36     1022
5.38     1044
5.4      1025
5.42     1017
5.44     1039
5.46     1026
5.48     1013
5.5      1024
5.52     1039
5.54     1005
5.56     1009
5.58     988
5.6      964
5.62     972
5.64     1011
5.66     1011
5.68     1019
5.7      1077
5.72     1086
5.74     1098
5.76     1082
5.78     1035
5.8      1051
5.82     1039
5.84     1002
5.86     973
5.88     974
5.9      997
5.92     988
5.94     1014
5.96     1016
5.98     1059
6.0      1087
6.02     1088
6.04     994
6.06     1031
6.08     997
6.1      977
6.12     958
6.14     963
6.16     1000
6.18     1019
6.2      1038
6.22     1010
6.24     984
6.26     1015
6.28     994
6.3      990
6.32     1002
6.34     1038
6.36     1057
6.38     1039
6.4      1111
6.42     1069
6.44     1092
6.46     1080
6.48     1110
6.5      1098
6.52     1107
6.54     1133
6.56     1091
6.58     1118
6.6      1129
6.62     1090
6.64     1076
6.66     1086
6.68     1106
6.7      1079
6.72     1058
6.74     1056
6.76     1062
6.78     1084
6.8      1026
6.82     1077
6.84     1030
6.86     1036
6.88     1048
6.9      1046
6.92     1085
6.94     1082
6.96     1090
6.98     1046
7.0      1032
7.02     1068
7.04     1026
7.06     1049
7.08     1063
7.1      1082
7.12     1075
7.14     1026
7.16     977
7.18     957
7.2      966
7.22     985
7.24     1011
7.26     1054
7.28     1070
7.3      1110
7.32     1077
7.34     1089
7.36     1071
7.38     1105
7.4      1059
7.42     1020
7.44     1024
7.46     995
7.48     1020
7.5      1022
7.52     1043
7.54     1103
7.56     1128
7.58     1168
7.6      1161
7.62     1121
7.64     1139
7.66     1071
7.68     1014
7.7      1022
7.72     1030
7.74     1042
7.76     1025
7.78     1056
7.8      1032
7.82     1020
7.84     1029
7.86     988
7.88     938
7.9      1018
7.92     1010
7.94     1012
7.96     1033
7.98     1061
8.0      1063
8.02     1084
8.04     1045
8.06     1034
8.08     968
8.1      960
8.12     947
8.14     962
8.16     1011
8.18     1039
8.2      1101
8.22     1083
8.24     1070
8.26     1052
8.28     1018
8.3      982
8.32     999
8.34     976
8.36     968
8.38     963
8.4      966
8.42     927
8.44     938
8.46     895
8.48     1007
8.5      1037
8.52     1064
8.54     1050
8.56     1071
8.58     1050
8.6      1023
8.62     997
8.64     941
8.66     925
8.68     1005
8.7      959
8.72     941
8.74     966
8.76     954
8.78     965
8.8      928
8.82     934
8.84     914
8.86     938
8.88     998
8.9      959
8.92     966
8.94     944
8.96     953
8.98     974
9.0      910
9.02     934
9.04     951
9.06     1001
9.08     1018
9.1      966
9.12     964
9.14     957
9.16     1030
9.18     968
9.2      947
9.22     972
9.24     936
9.26     916
9.28     831
9.3      800
9.32     805
9.34     845
9.36     847
9.38     862
9.4      858
9.42     929
9.44     895
9.46     854
9.48     894
9.5      879
9.52     871
9.54     896
9.56     849
9.58     888
9.6      805
9.62     820
9.64     762
9.66     726
9.68     735
9.7      732
9.72     739
9.74     757
9.76     779
9.78     815
9.8      798
9.82     781
9.84     790
9.86     796
9.88     788
9.9      798
9.92     777
9.94     741
9.96     763
9.98     735
10.0     754
10.02    691
10.04    732
10.06    730
10.08    730
10.1     755
10.12    787
10.14    773
10.16    793
10.18    726
10.2     729
10.22    699
10.24    772
10.26    761
10.28    763
10.3     831
10.32    857
10.34    853
10.36    833
10.38    791
10.4     820
10.42    833
10.44    817
10.46    790
10.48    777
10.5     839
10.52    849
10.54    874
10.56    847
10.58    865
10.6     879
10.62    828
10.64    753
10.66    740
10.68    732
10.7     752
10.72    753
10.74    763
10.76    742
10.78    747
10.8     789
10.82    746
10.84    701
10.86    726
10.88    713
10.9     731
10.92    752
10.94    755
10.96    790
10.98    824
11.0     871
11.02    842
11.04    844
11.06    859
11.08    837
11.1     845
11.12    814
11.14    792
11.16    799
11.18    813
11.2     851
11.22    844
11.24    894
11.26    901
11.28    906
11.3     882
11.32    882
11.34    832
11.36    856
11.38    854
11.4     847
11.42    853
11.44    944
11.46    938
11.48    934
11.5     948
11.52    959
11.54    900
11.56    915
11.58    881
11.6     876
11.62    907
11.64    959
11.66    973
11.68    990
11.7     1058
11.72    1089
11.74    1106
11.76    1036
11.78    1005
11.8     1016
11.82    996
11.84    931
11.86    966
11.88    928
11.9     970
11.92    1056
11.94    1055
11.96    1012
11.98    1028
12.0     1035
12.02    1041
12.04    1020
12.06    1060
12.08    1057
12.1     1124
12.12    1132
12.14    1055
12.16    1087
12.18    1038
12.2     998
12.22    1081
12.24    1089
12.26    1092
12.28    1135
12.3     1167
12.32    1164
12.34    1157
12.36    1211
12.38    1168
12.4     1192
12.42    1242
12.44    1148
12.46    1077
12.48    1126
12.5     1112
12.52    1145
12.54    1125
12.56    1103
12.58    1135
12.6     1174
12.62    1154
12.64    1108
12.66    1141
12.68    1210
12.7     1178
12.72    1160
12.74    1119
12.76    1122
12.78    1148
12.8     1173
12.82    1182
12.84    1271
12.86    1291
12.88    1279
12.9     1323
12.92    1298
12.94    1305
12.96    1262
12.98    1247
13.0     1256
13.02    1205
13.04    1202
13.06    1191
13.08    1151
13.1     1176
13.12    1176
13.14    1227
13.16    1225
13.18    1308
13.2     1288
13.22    1192
13.24    1193
13.26    1265
13.28    1241
13.3     1231
13.32    1242
13.34    1277
13.36    1262
13.38    1285
13.4     1260
13.42    1180
13.44    1203
13.46    1280
13.48    1291
13.5     1228
13.52    1249
13.54    1277
13.56    1270
13.58    1299
13.6     1308
13.62    1268
13.64    1324
13.66    1386
13.68    1412
13.7     1392
13.72    1366
13.74    1348
13.76    1391
13.78    1386
13.8     1316
13.82    1270
13.84    1327
13.86    1362
13.88    1339
13.9     1356
13.92    1337
13.94    1396
13.96    1439
13.98    1387
14.0     1380
14.02    1351
14.04    1315
14.06    1295
14.08    1263
14.1     1309
14.12    1336
14.14    1344
14.16    1323
14.18    1303
14.2     1380
14.22    1337
14.24    1344
14.26    1370
14.28    1347
14.3     1391
14.32    1432
14.34    1444
14.36    1470
14.38    1408
14.4     1442
14.42    1422
14.44    1401
14.46    1365
14.48    1368
14.5     1384
14.52    1383
14.54    1390
14.56    1401
14.58    1334
14.6     1378
14.62    1382
14.64    1331
14.66    1324
14.68    1359
14.7     1341
14.72    1374
14.74    1382
14.76    1419
14.78    1478
14.8     1624
14.82    1641
14.84    1592
14.86    1597
14.88    1610
14.9     1614
14.92    1584
14.94    1528
14.96    1547
14.98    1570
15.0     1595
15.02    1512
15.04    1480
15.06    1521
15.08    1505
15.1     1488
15.12    1461
15.14    1441
15.16    1454
15.18    1487
15.2     1500
15.22    1489
15.24    1445
15.26    1456
15.28    1467
15.3     1461
15.32    1447
15.34    1498
15.36    1528
15.38    1565
15.4     1615
15.42    1620
15.44    1504
15.46    1513
15.48    1529
15.5     1425
15.52    1415
15.54    1549
15.56    1537
15.58    1561
15.6     1625
15.62    1645
15.64    1632
15.66    1681
15.68    1594
15.7     1501
15.72    1655
15.74    1761
15.76    1703
15.78    1737
15.8     1768
15.82    1811
15.84    1871
15.86    1885
15.88    1871
15.9     1951
15.92    2040
15.94    1995
15.96    2019
15.98    2140
16.0     2239
16.02    2317
16.04    2444
16.06    2564
16.08    2761
16.1     2953
16.12    3083
16.14    3242
16.16    3523
16.18    3836
16.2     4106
16.22    4463
16.24    4987
16.26    5643
16.28    6392
16.3     7289
16.32    8340
16.34    9590
16.36    11143
16.38    13157
16.4     15648
16.42    18881
16.44    22780
16.46    27436
16.48    32567
16.5     37812
16.52    42362
16.54    45433
16.56    46360
16.58    44792
16.6     40780
16.62    35021
16.64    28367
16.66    21940
16.68    16313
16.7     12005
16.72    9014
16.74    7194
16.76    6001
16.78    5189
16.8     4619
16.82    4196
16.84    3829
16.86    3525
16.88    3207
16.9     2922
16.92    2691
16.94    2490
16.96    2261
16.98    2175
17.0     2185
17.02    2137
17.04    2029
17.06    1950
17.08    1955
17.1     1908
17.12    1861
17.14    1777
17.16    1727
17.18    1697
17.2     1654
17.22    1561
17.24    1549
17.26    1549
17.28    1600
17.3     1616
17.32    1607
17.34    1575
17.36    1520
17.38    1496
17.4     1414
17.42    1344
17.44    1368
17.46    1361
17.48    1345
17.5     1299
17.52    1267
17.54    1274
17.56    1261
17.58    1299
17.6     1257
17.62    1277
17.64    1287
17.66    1243
17.68    1251
17.7     1207
17.72    1176
17.74    1213
17.76    1211
17.78    1179
17.8     1160
17.82    1209
17.84    1193
17.86    1168
17.88    1185
17.9     1108
17.92    1076
17.94    1108
17.96    1107
17.98    1079
18.0     1090
18.02    1128
18.04    1159
18.06    1164
18.08    1148
18.1     1069
18.12    1070
18.14    1029
18.16    967
18.18    958
18.2     946
18.22    923
18.24    957
18.26    982
18.28    975
18.3     986
18.32    1039
18.34    989
18.36    952
18.38    934
18.4     915
18.42    927
18.44    957
18.46    926
18.48    935
18.5     986
18.52    977
18.54    908
18.56    846
18.58    837
18.6     872
18.62    902
18.64    885
18.66    885
18.68    948
18.7     950
18.72    931
18.74    920
18.76    925
18.78    956
18.8     948
18.82    897
18.84    882
18.86    926
18.88    894
18.9     849
18.92    813
18.94    794
18.96    802
18.98    843
19.0     834
19.02    843
19.04    849
19.06    889
19.08    847
19.1     861
19.12    844
19.14    849
19.16    855
19.18    849
19.2     821
19.22    839
19.24    775
19.26    809
19.28    841
19.3     871
19.32    894
19.34    889
19.36    868
19.38    846
19.4     872
19.42    867
19.44    789
19.46    776
19.48    735
19.5     723
19.52    736
19.54    745
19.56    802
19.58    786
19.6     818
19.62    817
19.64    753
19.66    655
19.68    612
19.7     668
19.72    713
19.74    740
19.76    771
19.78    748
19.8     841
19.82    822
19.84    788
19.86    698
19.88    726
19.9     775
19.92    783
19.94    756
19.96    786
19.98    824
20.0     818
20.02    709
20.04    659
20.06    628
20.08    657
20.1     626
20.12    617
20.14    645
20.16    643
20.18    637
20.2     671
20.22    722
20.24    750
20.26    769
20.28    783
20.3     790
20.32    793
20.34    813
20.36    735
20.38    690
20.4     765
20.42    787
20.44    726
20.46    663
20.48    631
20.5     658
20.52    658
20.54    711
20.56    643
20.58    582
20.6     602
20.62    630
20.64    631
20.66    619
20.68    613
20.7     640
20.72    722
20.74    782
20.76    712
20.78    677
20.8     683
20.82    693
20.84    646
20.86    588
20.88    613
20.9     643
20.92    697
20.94    667
20.96    639
20.98    637
21.0     654
21.02    634
21.04    678
21.06    686
21.08    724
21.1     714
21.12    727
21.14    734
21.16    713
21.18    620
21.2     535
21.22    567
21.24    648
21.26    568
21.28    573
21.3     578
21.32    671
21.34    767
21.36    761
21.38    679
21.4     653
21.42    701
21.44    751
21.46    717
21.48    694
21.5     639
21.52    638
21.54    708
21.56    696
21.58    650
21.6     604
21.62    621
21.64    705
21.66    688
21.68    606
21.7     557
21.72    584
21.74    587
21.76    557
21.78    510
21.8     441
21.82    444
21.84    462
21.86    498
21.88    533
21.9     587
21.92    582
21.94    552
21.96    574
21.98    580
22.0     483
22.02    431
22.04    433
22.06    539
22.08    581
22.1     651
22.12    629
22.14    698
22.16    749
22.18    767
22.2     661
22.22    623
22.24    561
22.26    611
22.28    548
22.3     531
22.32    475
22.34    547
22.36    530
22.38    576
22.4     588
22.42    612
22.44    559
22.46    574
22.48    518
22.5     462
22.52    450
22.54    538
22.56    537
22.58    596
22.6     602
22.62    592
22.64    568
22.66    544
22.68    504
22.7     453
22.72    503
22.74    589
22.76    642
22.78    652
22.8     606
22.82    580
22.84    606
22.86    558
22.88    498
22.9     447
22.92    514
22.94    562
22.96    595
22.98    540
23.0     478
23.02    459
23.04    510
23.06    464
23.08    435
23.1     438
23.12    486
23.14    515
23.16    515
23.18    495
23.2     510
23.22    504
23.24    512
23.26    430
23.28    397
23.3     423
23.32    457
23.34    471
23.36    450
23.38    448
23.4     463
23.42    450
23.44    445
23.46    445
23.48    492
23.5     591
23.52    588
23.54    591
23.56    540
23.58    497
23.6     493
23.62    481
23.64    540
23.66    567
23.68    562
23.7     529
23.72    442
23.74    415
23.76    389
23.78    396
23.8     422
23.82    475
23.84    501
23.86    485
23.88    484
23.9     509
23.92    531
23.94    546
23.96    528
23.98    496
24.0     507
24.02    474
24.04    468
24.06    489
24.08    535
24.1     555
24.12    488
24.14    448
24.16    368
24.18    395
24.2     362
24.22    366
24.24    397
24.26    420
24.28    419
24.3     422
24.32    386
24.34    482
24.36    514
24.38    600
24.4     571
24.42    615
24.44    562
24.46    478
24.48    400
24.5     399
24.52    371
24.54    413
24.56    383
24.58    440
24.6     466
24.62    497
24.64    506
24.66    443
24.68    483
24.7     510
24.72    555
24.74    575
24.76    515
24.78    477
24.8     407
24.82    391
24.84    391
24.86    374
24.88    381
24.9     485
24.92    555
24.94    561
24.96    488
24.98    437
25.0     457
25.02    459
25.04    484
25.06    456
25.08    401
25.1     509
25.12    446
25.14    477
25.16    413
25.18    411
25.2     427
25.22    414
25.24    482
25.26    493
25.28    497
25.3     492
25.32    466
25.34    471
25.36    449
25.38    486
25.4     449
25.42    400
25.44    397
25.46    329
25.48    312
25.5     329
25.52    384
25.54    430
25.56    481
25.58    489
25.6     491
25.62    419
25.64    360
25.66    328
25.68    337
25.7     398
25.72    447
25.74    494
25.76    514
25.78    531
25.8     551
25.82    496
25.84    467
25.86    473
25.88    450
25.9     441
25.92    444
25.94    448
25.96    508
25.98    511
26.0     465
26.02    420
26.04    371
26.06    396
26.08    406
26.1     456
26.12    439
26.14    449
26.16    488
26.18    497
26.2     486
26.22    433
26.24    372
26.26    353
26.28    308
26.3     312
26.32    290
26.34    292
26.36    357
26.38    358
26.4     410
26.42    431
26.44    390
26.46    413
26.48    389
26.5     401
26.52    456
26.54    494
26.56    509
26.58    416
26.6     403
26.62    370
26.64    332
26.66    401
26.68    355
26.7     425
26.72    411
26.74    437
26.76    388
26.78    385
26.8     362
26.82    407
26.84    379
26.86    434
26.88    431
26.9     473
26.92    409
26.94    419
26.96    443
26.98    484
27.0     469
27.02    431
27.04    307
27.06    320
27.08    286
27.1     354
27.12    404
27.14    484
27.16    521
27.18    596
27.2     586
27.22    547
27.24    459
27.26    411
27.28    372
27.3     433
27.32    437
27.34    500
27.36    499
27.38    585
27.4     502
27.42    494
27.44    436
27.46    376
27.48    337
27.5     365
27.52    416
27.54    495
27.56    485
27.58    478
27.6     384
27.62    415
27.64    424
27.66    419
27.68    421
27.7     507
27.72    512
27.74    471
27.76    421
27.78    369
27.8     319
27.82    332
27.84    411
27.86    490
27.88    562
27.9     606
27.92    522
27.94    472
27.96    422
27.98    328
28.0     268
28.02    234
28.04    219
28.06    221
28.08    275
28.1     307
28.12    301
28.14    408
28.16    467
28.18    481
28.2     515
28.22    465
28.24    394
28.26    365
28.28    332
28.3     312
28.32    292
28.34    375
28.36    385
28.38    421
28.4     398
28.42    410
28.44    433
28.46    445
28.48    406
28.5     398
28.52    347
28.54    344
28.56    253
28.58    259
28.6     233
28.62    285
28.64    362
28.66    451
28.68    437
28.7     407
28.72    376
28.74    395
28.76    363
28.78    416
28.8     464
28.82    483
28.84    494
28.86    472
28.88    372
28.9     277
28.92    257
28.94    269
28.96    270
28.98    317
29.0     310
29.02    339
29.04    369
29.06    433
29.08    434
29.1     486
29.12    516
29.14    518
29.16    500
29.18    423
29.2     332
29.22    357
29.24    369
29.26    356
29.28    375
29.3     379
29.32    395
29.34    446
29.36    526
29.38    521
29.4     551
29.42    512
29.44    397
29.46    285
29.48    234
29.5     174
29.52    245
29.54    341
29.56    478
29.58    523
29.6     582
29.62    575
29.64    510
29.66    516
29.68    467
29.7     442
29.72    388
29.74    359
29.76    359
29.78    284
29.8     288
29.82    264
29.84    236
29.86    334
29.88    386
29.9     455
29.92    434
29.94    451
29.96    440
29.98    457
30.0     410
30.02    379
30.04    399
30.06    394
30.08    404
30.1     368
30.12    345
30.14    388
30.16    429
30.18    478
30.2     497
30.22    512
30.24    531
30.26    488
30.28    482
30.3     481
30.32    487
30.34    491
30.36    437
30.38    351
30.4     313
30.42    257
30.44    245
30.46    275
30.48    285
30.5     306
30.52    311
30.54    327
30.56    367
30.58    377
30.6     425
30.62    440
30.64    430
30.66    420
30.68    391
30.7     318
30.72    319
30.74    355
30.76    446
30.78    533
30.8     580
30.82    611
30.84    596
30.86    476
30.88    437
30.9     296
30.92    290
30.94    320
30.96    351
30.98    410
31.0     388
31.02    413
31.04    380
31.06    312
31.08    371
31.1     336
31.12    400
31.14    409
31.16    393
31.18    423
31.2     385
31.22    345
31.24    346
31.26    347
31.28    428
31.3     480
31.32    533
31.34    547
31.36    522
31.38    573
31.4     488
31.42    426
31.44    443
31.46    429
31.48    440
31.5     431
31.52    364
31.54    351
31.56    335
31.58    398
31.6     417
31.62    512
31.64    550
31.66    534
31.68    474
31.7     440
31.72    353
31.74    314
31.76    359
31.78    430
31.8     490
31.82    460
31.84    366
31.86    339
31.88    333
31.9     410
31.92    446
31.94    448
31.96    499
31.98    467
32.0     450
32.02    453
32.04    458
32.06    494
32.08    573
32.1     611
32.12    613
32.14    610
32.16    626
32.18    683
32.2     853
32.22    1098
32.24    1247
32.26    1240
32.28    1194
32.3     962
32.32    768
32.34    695
32.36    650
32.38    706
32.4     815
32.42    882
32.44    885
32.46    808
32.48    706
32.5     559
32.52    533
32.54    548
32.56    558
32.58    570
32.6     609
32.62    558
32.64    520
32.66    525
32.68    484
32.7     519
32.72    550
32.74    509
32.76    498
32.78    426
32.8     460
32.82    455
32.84    493
32.86    552
32.88    575
32.9     620
32.92    644
32.94    654
32.96    675
32.98    683
33.0     705
33.02    714
33.04    760
33.06    765
33.08    752
33.1     713
33.12    760
33.14    755
33.16    740
33.18    826
33.2     880
33.22    1015
33.24    1223
33.26    1439
33.28    1670
33.3     1933
33.32    2263
33.34    2493
33.36    2792
33.38    3242
33.4     3825
33.42    4563
33.44    5494
33.46    6557
33.48    7625
33.5     8649
33.52    9388
33.54    9745
33.56    9684
33.58    9195
33.6     8372
33.62    7318
33.64    6177
33.66    5096
33.68    4113
33.7     3342
33.72    2683
33.74    2162
33.76    1818
33.78    1511
33.8     1305
33.82    1183
33.84    1080
33.86    1023
33.88    954
33.9     937
33.92    855
33.94    747
33.96    792
33.98    766
34.0     810
34.02    853
34.04    887
34.06    854
34.08    816
34.1     808
34.12    703
34.14    631
34.16    676
34.18    669
34.2     727
34.22    726
34.24    671
34.26    575
34.28    518
34.3     496
34.32    482
34.34    546
34.36    598
34.38    581
34.4     618
34.42    587
34.44    563
34.46    485
34.48    472
34.5     494
34.52    588
34.54    619
34.56    619
34.58    585
34.6     565
34.62    571
34.64    588
34.66    579
34.68    566
34.7     574
34.72    638
34.74    598
34.76    599
34.78    633
34.8     684
34.82    724
34.84    774
34.86    868
34.88    885
34.9     991
34.92    1113
34.94    1235
34.96    1514
34.98    1964
35.0     2432
35.02    3048
35.04    4003
35.06    5196
35.08    6538
35.1     8023
35.12    9260
35.14    10026
35.16    10321
35.18    9979
35.2     9081
35.22    7955
35.24    6722
35.26    5496
35.28    4512
35.3     3824
35.32    3187
35.34    2708
35.36    2313
35.38    1957
35.4     1731
35.42    1591
35.44    1394
35.46    1188
35.48    1086
35.5     969
35.52    865
35.54    850
35.56    773
35.58    764
35.6     765
35.62    771
35.64    744
35.66    716
35.68    755
35.7     787
35.72    826
35.74    806
35.76    777
35.78    706
35.8     629
35.82    537
35.84    453
35.86    428
35.88    511
35.9     649
35.92    746
35.94    834
35.96    904
35.98    866
36.0     857
36.02    744
36.04    645
36.06    704
36.08    805
36.1     928
36.12    1067
36.14    1199
36.16    1273
36.18    1305
36.2     1436
36.22    1531
36.24    1730
36.26    2080
36.28    2505
36.3     2936
36.32    3504
36.34    4178
36.36    5100
36.38    6340
36.4     8135
36.42    10327
36.44    12940
36.46    15600
36.48    17928
36.5     19399
36.52    19873
36.54    19241
36.56    17594
36.58    15275
36.6     12703
36.62    10215
36.64    8223
36.66    6577
36.68    5389
36.7     4491
36.72    3818
36.74    3280
36.76    2814
36.78    2443
36.8     2079
36.82    1786
36.84    1565
36.86    1369
36.88    1228
36.9     1157
36.92    1181
36.94    1149
36.96    1064
36.98    996
37.0     941
37.02    864
37.04    839
37.06    861
37.08    763
37.1     789
37.12    825
37.14    792
37.16    759
37.18    814
37.2     832
37.22    829
37.24    831
37.26    802
37.28    705
37.3     688
37.32    683
37.34    766
37.36    816
37.38    882
37.4     853
37.42    814
37.44    717
37.46    634
37.48    630
37.5     659
37.52    674
37.54    699
37.56    693
37.58    648
37.6     562
37.62    526
37.64    540
37.66    556
37.68    689
37.7     774
37.72    759
37.74    782
37.76    797
37.78    765
37.8     745
37.82    804
37.84    849
37.86    913
37.88    976
37.9     926
37.92    859
37.94    782
37.96    663
37.98    573
38.0     554
38.02    547
38.04    551
38.06    628
38.08    621
38.1     548
38.12    579
38.14    515
38.16    494
38.18    482
38.2     583
38.22    587
38.24    630
38.26    626
38.28    586
38.3     546
38.32    555
38.34    478
38.36    437
38.38    390
38.4     387
38.42    296
38.44    299
38.46    350
38.48    410
38.5     431
38.52    492
38.54    523
38.56    523
38.58    520
38.6     534
38.62    406
38.64    426
38.66    460
38.68    465
38.7     389
38.72    452
38.74    450
38.76    437
38.78    412
38.8     427
38.82    355
38.84    332
38.86    339
38.88    379
38.9     358
38.92    332
38.94    348
38.96    359
38.98    390
39.0     447
39.02    522
39.04    482
39.06    525
39.08    575
39.1     468
39.12    381
39.14    422
39.16    416
39.18    455
39.2     504
39.22    572
39.24    543
39.26    559
39.28    561
39.3     408
39.32    396
39.34    384
39.36    362
39.38    328
39.4     319
39.42    334
39.44    339
39.46    330
39.48    338
39.5     339
39.52    397
39.54    437
39.56    451
39.58    464
39.6     424
39.62    418
39.64    370
39.66    348
39.68    316
39.7     365
39.72    351
39.74    384
39.76    406
39.78    469
39.8     495
39.82    517
39.84    522
39.86    581
39.88    530
39.9     547
39.92    515
39.94    518
39.96    483
39.98    554
40.0     622
40.02    652
40.04    690
40.06    742
40.08    705
40.1     716
40.12    688
40.14    757
40.16    783
40.18    915
40.2     1016
40.22    1082
40.24    1074
40.26    1018
40.28    973
40.3     918
40.32    811
40.34    802
40.36    770
40.38    723
40.4     712
40.42    688
40.44    637
40.46    620
40.48    715
40.5     801
40.52    839
40.54    932
40.56    1027
40.58    1020
40.6     1011
40.62    1023
40.64    982
40.66    1001
40.68    1030
40.7     1105
40.72    1140
40.74    1228
40.76    1276
40.78    1263
40.8     1241
40.82    1221
40.84    1183
40.86    1168
40.88    1184
40.9     1244
40.92    1285
40.94    1374
40.96    1475
40.98    1544
41.0     1730
41.02    1857
41.04    1970
41.06    1981
41.08    2071
41.1     2121
41.12    2241
41.14    2480
41.16    2837
41.18    3190
41.2     3719
41.22    4195
41.24    4664
41.26    5206
41.28    5871
41.3     6626
41.32    7717
41.34    9217
41.36    11125
41.38    13545
41.4     16748
41.42    20743
41.44    25754
41.46    31949
41.48    39125
41.5     46874
41.52    54448
41.54    60796
41.56    64834
41.58    66008
41.6     64067
41.62    59349
41.64    52714
41.66    45087
41.68    37547
41.7     30724
41.72    24982
41.74    20300
41.76    16564
41.78    13607
41.8     11237
41.82    9408
41.84    7925
41.86    6701
41.88    5714
41.9     4927
41.92    4244
41.94    3735
41.96    3326
41.98    2960
42.0     2710
42.02    2559
42.04    2385
42.06    2338
42.08    2197
42.1     2097
42.12    1954
42.14    1843
42.16    1599
42.18    1427
42.2     1363
42.22    1318
42.24    1307
42.26    1332
42.28    1337
42.3     1361
42.32    1308
42.34    1261
42.36    1167
42.38    1131
42.4     1101
42.42    1048
42.44    1010
42.46    1010
42.48    975
42.5     992
42.52    1005
42.54    1042
42.56    982
42.58    948
42.6     907
42.62    861
42.64    833
42.66    888
42.68    849
42.7     899
42.72    945
42.74    946
42.76    949
42.78    925
42.8     807
42.82    782
42.84    708
42.86    667
42.88    639
42.9     598
42.92    617
42.94    682
42.96    787
42.98    840
43.0     853
43.02    945
43.04    894
43.06    841
43.08    798
43.1     664
43.12    600
43.14    514
43.16    543
43.18    544
43.2     574
43.22    649
43.24    682
43.26    685
43.28    715
43.3     716
43.32    707
43.34    629
43.36    623
43.38    583
43.4     540
43.42    602
43.44    642
43.46    684
43.48    731
43.5     705
43.52    689
43.54    647
43.56    609
43.58    524
43.6     457
43.62    551
43.64    575
43.66    589
43.68    598
43.7     633
43.72    760
43.74    796
43.76    796
43.78    752
43.8     729
43.82    714
43.84    630
43.86    603
43.88    593
43.9     620
43.92    643
43.94    648
43.96    644
43.98    617
44.0     574
44.02    569
44.04    567
44.06    569
44.08    565
44.1     510
44.12    455
44.14    437
44.16    402
44.18    381
44.2     374
44.22    377
44.24    451
44.26    513
44.28    655
44.3     705
44.32    734
44.34    733
44.36    677
44.38    575
44.4     452
44.42    353
44.44    383
44.46    383
44.48    490
44.5     567
44.52    569
44.54    590
44.56    595
44.58    533
44.6     502
44.62    503
44.64    554
44.66    550
44.68    629
44.7     686
44.72    656
44.74    655
44.76    689
44.78    597
44.8     546
44.82    505
44.84    579
44.86    637
44.88    726
44.9     825
44.92    951
44.94    1123
44.96    1349
44.98    1473
45.0     1676
45.02    1766
45.04    1849
45.06    1860
45.08    1767
45.1     1639
45.12    1474
45.14    1318
45.16    1286
45.18    1200
45.2     1160
45.22    1030
45.24    929
45.26    836
45.28    738
45.3     683
45.32    620
45.34    623
45.36    734
45.38    696
45.4     682
45.42    627
45.44    610
45.46    543
45.48    525
45.5     544
45.52    506
45.54    491
45.56    470
45.58    478
45.6     512
45.62    501
45.64    585
45.66    575
45.68    625
45.7     571
45.72    466
45.74    428
45.76    395
45.78    434
45.8     434
45.82    501
45.84    623
45.86    630
45.88    635
45.9     479
45.92    406
45.94    372
45.96    334
45.98    343
46.0     327
46.02    508
46.04    610
46.06    606
46.08    608
46.1     577
46.12    588
46.14    562
46.16    486
46.18    487
46.2     449
46.22    514
46.24    483
46.26    420
46.28    472
46.3     498
46.32    486
46.34    467
46.36    484
46.38    517
46.4     451
46.42    432
46.44    398
46.46    386
46.48    411
46.5     358
46.52    351
46.54    362
46.56    335
46.58    274
46.6     265
46.62    290
46.64    291
46.66    342
46.68    413
46.7     434
46.72    455
46.74    420
46.76    396
46.78    421
46.8     439
46.82    416
46.84    405
46.86    411
46.88    415
46.9     343
46.92    252
46.94    176
46.96    214
46.98    296
47.0     336
47.02    427
47.04    504
47.06    577
47.08    552
47.1     526
47.12    444
47.14    400
47.16    358
47.18    397
47.2     430
47.22    455
47.24    497
47.26    519
47.28    494
47.3     513
47.32    449
47.34    437
47.36    343
47.38    347
47.4     338
47.42    286
47.44    299
47.46    369
47.48    426
47.5     465
47.52    512
47.54    565
47.56    623
47.58    613
47.6     573
47.62    491
47.64    444
47.66    409
47.68    349
47.7     284
47.72    284
47.74    333
47.76    425
47.78    413
47.8     495
47.82    541
47.84    585
47.86    586
47.88    629
47.9     616
47.92    564
47.94    552
47.96    465
47.98    342
48.0     344
48.02    322
48.04    365
48.06    377
48.08    405
48.1     482
48.12    472
48.14    484
48.16    422
48.18    406
48.2     429
48.22    401
48.24    397
48.26    384
48.28    353
48.3     421
48.32    372
48.34    404
48.36    437
48.38    529
48.4     532
48.42    546
48.44    558
48.46    510
48.48    478
48.5     437
48.52    372
48.54    368
48.56    329
48.58    297
48.6     266
48.62    327
48.64    347
48.66    331
48.68    443
48.7     451
48.72    479
48.74    446
48.76    397
48.78    365
48.8     337
48.82    357
48.84    347
48.86    380
48.88    447
48.9     458
48.92    437
48.94    369
48.96    286
48.98    245
49.0     157
49.02    180
49.04    200
49.06    253
49.08    312
49.1     395
49.12    473
49.14    494
49.16    426
49.18    409
49.2     392
49.22    379
49.24    287
49.26    231
49.28    205
49.3     278
49.32    355
49.34    397
49.36    427
49.38    469
49.4     525
49.42    503
49.44    411
49.46    369
49.48    370
49.5     392
49.52    361
49.54    344
49.56    345
49.58    329
49.6     321
49.62    298
49.64    216
49.66    172
49.68    190
49.7     253
49.72    291
49.74    419
49.76    542
49.78    579
49.8     568
49.82    519
49.84    456
49.86    401
49.88    299
49.9     258
49.92    223
49.94    250
49.96    324
49.98    316
50.0     353
50.02    418
50.04    490
50.06    516
50.08    411
50.1     380
50.12    364
50.14    281
50.16    241
50.18    176
50.2     212
50.22    312
50.24    335
50.26    397
50.28    442
50.3     554
50.32    604
50.34    532
50.36    444
50.38    426
50.4     377
50.42    319
50.44    232
50.46    201
50.48    231
50.5     267
50.52    299
50.54    287
50.56    340
50.58    407
50.6     335
50.62    336
50.64    343
50.66    313
50.68    312
50.7     269
50.72    292
50.74    276
50.76    335
50.78    424
50.8     391
50.82    405
50.84    421
50.86    406
50.88    438
50.9     434
50.92    463
50.94    465
50.96    502
50.98    549
51.0     482
51.02    343
51.04    267
51.06    242
51.08    262
51.1     284
51.12    306
51.14    342
51.16    444
51.18    550
51.2     565
51.22    511
51.24    430
51.26    392
51.28    394
51.3     327
51.32    279
51.34    238
51.36    287
51.38    342
51.4     367
51.42    397
51.44    446
51.46    453
51.48    531
51.5     458
51.52    441
51.54    379
51.56    367
51.58    329
51.6     359
51.62    344
51.64    350
51.66    326
51.68    366
51.7     351
51.72    366
51.74    401
51.76    404
51.78    424
51.8     472
51.82    453
51.84    404
51.86    403
51.88    364
51.9     387
51.92    363
51.94    387
51.96    379
51.98    421
52.0     450
52.02    459
52.04    462
52.06    492
52.08    533
52.1     544
52.12    504
52.14    499
52.16    551
52.18    565
52.2     581
52.22    589
52.24    601
52.26    572
52.28    529
52.3     426
52.32    395
52.34    329
52.36    333
52.38    348
52.4     433
52.42    545
52.44    571
52.46    577
52.48    607
52.5     603
52.52    570
52.54    486
52.56    433
52.58    428
52.6     376
52.62    407
52.64    472
52.66    514
52.68    559
52.7     547
52.72    540
52.74    587
52.76    590
52.78    512
52.8     398
52.82    411
52.84    450
52.86    472
52.88    466
52.9     480
52.92    537
52.94    662
52.96    675
52.98    686
53.0     728
53.02    726
53.04    810
53.06    855
53.08    888
53.1     1000
53.12    1008
53.14    1068
53.16    1078
53.18    1118
53.2     1200
53.22    1302
53.24    1447
53.26    1587
53.28    1826
53.3     2159
53.32    2433
53.34    2805
53.36    3251
53.38    3803
53.4     4379
53.42    4956
53.44    5386
53.46    5730
53.48    5897
53.5     5869
53.52    5571
53.54    5148
53.56    4581
53.58    4007
53.6     3397
53.62    2895
53.64    2503
53.66    2209
53.68    1955
53.7     1780
53.72    1662
53.74    1510
53.76    1318
53.78    1134
53.8     1011
53.82    887
53.84    828
53.86    795
53.88    755
53.9     781
53.92    831
53.94    740
53.96    743
53.98    703
54.0     673
54.02    582
54.04    531
54.06    526
54.08    490
54.1     462
54.12    472
54.14    469
54.16    514
54.18    524
54.2     518
54.22    559
54.24    610
54.26    668
54.28    652
54.3     605
54.32    584
54.34    566
54.36    484
54.38    360
54.4     278
54.42    215
54.44    207
54.46    295
54.48    318
54.5     339
54.52    396
54.54    476
54.56    563
54.58    597
54.6     565
54.62    440
54.64    456
54.66    492
54.68    400
54.7     343
54.72    295
54.74    271
54.76    371
54.78    451
54.8     455
54.82    466
54.84    555
54.86    524
54.88    545
54.9     512
54.92    470
54.94    423
54.96    425
54.98    373
55.0     358
55.02    334
55.04    291
55.06    237
55.08    308
55.1     253
55.12    280
55.14    248
55.16    236
55.18    263
55.2     320
55.22    359
55.24    425
55.26    489
55.28    561
55.3     536
55.32    502
55.34    382
55.36    355
55.38    302
55.4     300
55.42    335
55.44    462
55.46    548
55.48    664
55.5     666
55.52    656
55.54    589
55.56    538
55.58    430
55.6     342
55.62    329
55.64    360
55.66    366
55.68    431
55.7     409
55.72    416
55.74    467
55.76    453
55.78    432
55.8     416
55.82    469
55.84    428
55.86    424
55.88    444
55.9     392
55.92    395
55.94    433
55.96    438
55.98    490
56.0     572
56.02    556
56.04    507
56.06    543
56.08    489
56.1     459
56.12    453
56.14    385
56.16    369
56.18    404
56.2     431
56.22    467
56.24    473
56.26    542
56.28    524
56.3     546
56.32    519
56.34    475
56.36    443
56.38    416
56.4     391
56.42    414
56.44    341
56.46    370
56.48    348
56.5     364
56.52    390
56.54    426
56.56    406
56.58    441
56.6     484
56.62    514
56.64    500
56.66    456
56.68    471
56.7     508
56.72    535
56.74    520
56.76    532
56.78    616
56.8     647
56.82    637
56.84    586
56.86    489
56.88    522
56.9     501
56.92    508
56.94    414
56.96    399
56.98    427
57.0     462
57.02    486
57.04    465
57.06    433
57.08    510
57.1     573
57.12    629
57.14    586
57.16    628
57.18    722
57.2     834
57.22    861
57.24    811
57.26    734
57.28    675
57.3     633
57.32    594
57.34    510
57.36    469
57.38    506
57.4     578
57.42    612
57.44    626
57.46    693
57.48    659
57.5     716
57.52    776
57.54    774
57.56    710
57.58    743
57.6     730
57.62    690
57.64    676
57.66    705
57.68    655
57.7     691
57.72    772
57.74    859
57.76    924
57.78    1049
57.8     1143
57.82    1222
57.84    1331
57.86    1391
57.88    1443
57.9     1502
57.92    1609
57.94    1816
57.96    2037
57.98    2295
58.0     2612
58.02    3002
58.04    3378
58.06    3785
58.08    4260
58.1     4784
58.12    5388
58.14    6173
58.16    7017
58.18    7988
58.2     9024
58.22    10100
58.24    10979
58.26    11740
58.28    12157
58.3     12200
58.32    11916
58.34    11325
58.36    10460
58.38    9404
58.4     8290
58.42    7185
58.44    6208
58.46    5377
58.48    4649
58.5     4077
58.52    3609
58.54    3230
58.56    2893
58.58    2547
58.6     2240
58.62    1981
58.64    1822
58.66    1639
58.68    1551
58.7     1457
58.72    1362
58.74    1313
58.76    1205
58.78    1068
58.8     966
58.82    931
58.84    917
58.86    820
58.88    785
58.9     806
58.92    785
58.94    814
58.96    813
58.98    754
59.0     701
59.02    730
59.04    700
59.06    647
59.08    589
59.1     550
59.12    470
59.14    548
59.16    627
59.18    578
59.2     545
59.22    582
59.24    559
59.26    624
59.28    596
59.3     495
59.32    468
59.34    532
59.36    549
59.38    531
59.4     539
59.42    548
59.44    600
59.46    634
59.48    628
59.5     523
59.52    487
59.54    451
59.56    410
59.58    456
59.6     448
59.62    514
59.64    536
59.66    521
59.68    532
59.7     486
59.72    453
59.74    460
59.76    471
59.78    500
59.8     511
59.82    593
59.84    530
59.86    526
59.88    546
59.9     571
59.92    585
59.94    624
59.96    571
59.98    520
60.0     544
60.02    567
60.04    472
60.06    458
60.08    458
60.1     467
60.12    510
60.14    484
60.16    411
60.18    385
60.2     428
60.22    478
60.24    464
60.26    447
60.28    426
60.3     447
60.32    452
60.34    447
60.36    444
60.38    443
60.4     464
60.42    494
60.44    512
60.46    485
60.48    518
60.5     546
60.52    544
60.54    601
60.56    591
60.58    540
60.6     528
60.62    440
60.64    436
60.66    390
60.68    377
60.7     353
60.72    393
60.74    489
60.76    513
60.78    597
60.8     640
60.82    606
60.84    620
60.86    597
60.88    506
60.9     411
60.92    442
60.94    427
60.96    373
60.98    421
61.0     400
61.02    436
61.04    475
61.06    558
61.08    574
61.1     577
61.12    656
61.14    653
61.16    651
61.18    643
61.2     622
61.22    524
61.24    455
61.26    420
61.28    369
61.3     249
61.32    236
61.34    214
61.36    242
61.38    304
61.4     423
61.42    451
61.44    593
61.46    689
61.48    716
61.5     715
61.52    687
61.54    632
61.56    633
61.58    609
61.6     584
61.62    598
61.64    670
61.66    687
61.68    680
61.7     736
61.72    721
61.74    782
61.76    847
61.78    831
61.8     874
61.82    970
61.84    1072
61.86    1186
61.88    1330
61.9     1514
61.92    1694
61.94    2000
61.96    2335
61.98    2685
62.0     3223
62.02    3817
62.04    4580
62.06    5569
62.08    6776
62.1     8134
62.12    9535
62.14    10939
62.16    12127
62.18    12900
62.2     13415
62.22    13377
62.24    12839
62.26    11961
62.28    10887
62.3     9707
62.32    8514
62.34    7427
62.36    6465
62.38    5564
62.4     5008
62.42    4532
62.44    4131
62.46    3713
62.48    3426
62.5     3153
62.52    2927
62.54    2685
62.56    2460
62.58    2167
62.6     1987
62.62    1913
62.64    1781
62.66    1566
62.68    1472
62.7     1353
62.72    1249
62.74    1120
62.76    980
62.78    848
62.8     749
62.82    733
62.84    760
62.86    710
62.88    724
62.9     728
62.92    663
62.94    621
62.96    585
62.98    573
63.0     520
63.02    520
63.04    542
63.06    452
63.08    435
63.1     404
63.12    315
63.14    251
63.16    282
63.18    344
63.2     355
63.22    420
63.24    439
63.26    468
63.28    525
63.3     597
63.32    658
63.34    670
63.36    647
63.38    647
63.4     548
63.42    467
63.44    374
63.46    309
63.48    286
63.5     302
63.52    393
63.54    453
63.56    442
63.58    575
63.6     572
63.62    632
63.64    655
63.66    684
63.68    699
63.7     640
63.72    601
63.74    575
63.76    487
63.78    499
63.8     457
63.82    475
63.84    446
63.86    478
63.88    526
63.9     519
63.92    500
63.94    485
63.96    447
63.98    425
64.0     380
64.02    339
64.04    353
64.06    338
64.08    370
64.1     345
64.12    365
64.14    412
64.16    468
64.18    465
64.2     446
64.22    461
64.24    501
64.26    457
64.28    452
64.3     459
64.32    513
64.34    565
64.36    550
64.38    603
64.4     611
64.42    577
64.44    640
64.46    634
64.48    669
64.5     711
64.52    779
64.54    854
64.56    860
64.58    982
64.6     1062
64.62    1044
64.64    1126
64.66    1180
64.68    1327
64.7     1459
64.72    1702
64.74    1958
64.76    2277
64.78    2647
64.8     2978
64.82    3194
64.84    3432
64.86    3602
64.88    3717
64.9     3635
64.92    3530
64.94    3283
64.96    3102
64.98    2828
65.0     2556
65.02    2266
65.04    2005
65.06    1762
65.08    1618
65.1     1347
65.12    1190
65.14    1029
65.16    1066
65.18    1027
65.2     1100
65.22    1111
65.24    1126
65.26    1120
65.28    1141
65.3     1031
65.32    917
65.34    768
65.36    740
65.38    604
65.4     519
65.42    426
65.44    295
65.46    169
65.48    215
65.5     244
65.52    259
65.54    290
65.56    418
65.58    504
65.6     534
65.62    653
65.64    684
65.66    726
65.68    751
65.7     737
65.72    703
65.74    629
65.76    547
65.78    463
65.8     348
65.82    269
65.84    205
65.86    183
65.88    90
65.9     157
65.92    234
65.94    286
65.96    376
65.98    400
66.0     473
66.02    431
66.04    494
66.06    538
66.08    485
66.1     466
66.12    429
66.14    367
66.16    353
66.18    333
66.2     396
66.22    367
66.24    407
66.26    410
66.28    356
66.3     345
66.32    339
66.34    336
66.36    353
66.38    405
66.4     429
66.42    408
66.44    408
66.46    401
66.48    375
66.5     390
66.52    331
66.54    288
66.56    319
66.58    339
66.6     312
66.62    328
66.64    361
66.66    406
66.68    412
66.7     421
66.72    445
66.74    507
66.76    559
66.78    553
66.8     522
66.82    506
66.84    449
66.86    362
66.88    308
66.9     283
66.92    320
66.94    316
66.96    316
66.98    320
67.0     335
67.02    319
67.04    298
67.06    304
67.08    341
67.1     390
67.12    399
67.14    421
67.16    475
67.18    520
67.2     562
67.22    587
67.24    559
67.26    536
67.28    437
67.3     388
67.32    300
67.34    247
67.36    160
67.38    221
67.4     246
67.42    275
67.44    304
67.46    361
67.48    386
67.5     442
67.52    414
67.54    417
67.56    391
67.58    423
67.6     485
67.62    453
67.64    500
67.66    478
67.68    492
67.7     481
67.72    459
67.74    441
67.76    404
67.78    325
67.8     333
67.82    287
67.84    293
67.86    282
67.88    327
67.9     346
67.92    441
67.94    428
67.96    443
67.98    410
68.0     438
68.02    477
68.04    509
68.06    500
68.08    496
68.1     508
68.12    545
68.14    529
68.16    495
68.18    461
68.2     434
68.22    432
68.24    406
68.26    400
68.28    490
68.3     487
68.32    470
68.34    537
68.36    533
68.38    559
68.4     544
68.42    548
68.44    510
68.46    565
68.48    591
68.5     574
68.52    622
68.54    676
68.56    650
68.58    689
68.6     729
68.62    777
68.64    815
68.66    876
68.68    967
68.7     1080
68.72    1171
68.74    1193
68.76    1250
68.78    1362
68.8     1554
68.82    1718
68.84    1909
68.86    2114
68.88    2336
68.9     2590
68.92    2835
68.94    3038
68.96    3200
68.98    3263
69.0     3286
69.02    3144
69.04    2950
69.06    2734
69.08    2458
69.1     2239
69.12    2019
69.14    1792
69.16    1606
69.18    1429
69.2     1267
69.22    1105
69.24    1024
69.26    951
69.28    856
69.3     829
69.32    815
69.34    801
69.36    755
69.38    717
69.4     636
69.42    638
69.44    665
69.46    674
69.48    695
69.5     732
69.52    732
69.54    735
69.56    706
69.58    660
69.6     602
69.62    611
69.64    541
69.66    500
69.68    446
69.7     410
69.72    337
69.74    301
69.76    295
69.78    289
69.8     275
69.82    287
69.84    298
69.86    326
69.88    379
69.9     451
69.92    538
69.94    582
69.96    640
69.98    643
70.0     597
70.02    530
70.04    493
70.06    424
70.08    434
70.1     452
70.12    432
70.14    467
70.16    505
70.18    521
70.2     562
70.22    641
70.24    721
70.26    883
70.28    965
70.3     966
70.32    984
70.34    1040
70.36    1015
70.38    1050
70.4     1063
70.42    1136
70.44    1233
70.46    1298
70.48    1353
70.5     1382
70.52    1421
70.54    1420
70.56    1436
70.58    1414
70.6     1423
70.62    1431
70.64    1431
70.66    1380
70.68    1409
70.7     1348
70.72    1276
70.74    1172
70.76    1064
70.78    913
70.8     779
70.82    680
70.84    569
70.86    545
70.88    472
70.9     400
70.92    384
70.94    312
70.96    329
70.98    369
71.0     412
71.02    489
71.04    502
71.06    519
71.08    515
71.1     534
71.12    541
71.14    540
71.16    584
71.18    612
71.2     555
71.22    515
71.24    458
71.26    428
71.28    423
71.3     447
71.32    437
71.34    461
71.36    412
71.38    416
71.4     402
71.42    460
71.44    447
71.46    444
71.48    468
71.5     539
71.52    529
71.54    500
71.56    410
71.58    439
71.6     450
71.62    461
71.64    487
71.66    483
71.68    547
71.7     574
71.72    565
71.74    513
71.76    457
71.78    444
71.8     439
71.82    446
71.84    426
71.86    349
71.88    366
71.9     349
71.92    375
71.94    411
71.96    451
71.98    467
72.0     513
72.02    487
72.04    479
72.06    476
72.08    535
72.1     583
72.12    608
72.14    649
72.16    661
72.18    684
72.2     722
72.22    732
72.24    798
72.26    833
72.28    920
72.3     1004
72.32    1092
72.34    1229
72.36    1416
72.38    1646
72.4     1901
72.42    2134
72.44    2391
72.46    2591
72.48    2848
72.5     3065
72.52    3307
72.54    3475
72.56    3685
72.58    3809
72.6     3852
72.62    3812
72.64    3741
72.66    3574
72.68    3322
72.7     3000
72.72    2687
72.74    2392
72.76    2182
72.78    1925
72.8     1692
72.82    1542
72.84    1469
72.86    1409
72.88    1320
72.9     1243
72.92    1126
72.94    1073
72.96    1000
72.98    924
73.0     870
73.02    850
73.04    841
73.06    879
73.08    840
73.1     775
73.12    721
73.14    694
73.16    681
73.18    689
73.2     713
73.22    678
73.24    666
73.26    660
73.28    595
73.3     590
73.32    589
73.34    528
73.36    589
73.38    615
73.4     720
73.42    813
73.44    965
73.46    1039
73.48    1113
73.5     1176
73.52    1148
73.54    1026
73.56    994
73.58    867
73.6     875
73.62    811
73.64    706
73.66    594
73.68    560
73.7     515
73.72    505
73.74    501
73.76    581
73.78    643
73.8     782
73.82    771
73.84    818
73.86    820
73.88    848
73.9     773
73.92    744
73.94    671
73.96    601
73.98    553
74.0     535
74.02    558
74.04    669
74.06    714
74.08    769
74.1     848
74.12    892
74.14    939
74.16    1008
74.18    1122
74.2     1211
74.22    1325
74.24    1425
74.26    1500
74.28    1545
74.3     1642
74.32    1700
74.34    1822
74.36    1850
74.38    1852
74.4     1780
74.42    1745
74.44    1674
74.46    1599
74.48    1523
74.5     1484
74.52    1471
74.54    1474
74.56    1351
74.58    1322
74.6     1303
74.62    1355
74.64    1342
74.66    1350
74.68    1398
74.7     1498
74.72    1563
74.74    1586
74.76    1639
74.78    1702
74.8     1764
74.82    1813
74.84    1777
74.86    1751
74.88    1760
74.9     1730
74.92    1660
74.94    1536
74.96    1540
74.98    1434
75.0     1450
75.02    1364
75.04    1271
75.06    1186
75.08    1087
75.1     964
75.12    891
75.14    849
75.16    898
75.18    844
75.2     895
75.22    813
75.24    788
75.26    738
75.28    676
75.3     628
75.32    579
75.34    526
75.36    498
75.38    400
75.4     422
75.42    357
75.44    384
75.46    412
75.48    420
75.5     444
75.52    432
75.54    475
75.56    543
75.58    566
75.6     669
75.62    591
75.64    594
75.66    509
75.68    474
75.7     507
75.72    447
75.74    450
75.76    406
75.78    368
75.8     358
75.82    249
75.84    270
75.86    281
75.88    414
75.9     512
75.92    465
75.94    479
75.96    475
75.98    481
76.0     481
76.02    465
76.04    550
76.06    573
76.08    586
76.1     512
76.12    362
76.14    301
76.16    298
76.18    287
76.2     240
76.22    222
76.24    264
76.26    296
76.28    356
76.3     354
76.32    366
76.34    488
76.36    600
76.38    598
76.4     552
76.42    543
76.44    492
76.46    479
76.48    463
76.5     399
76.52    389
76.54    458
76.56    445
76.58    350
76.6     381
76.62    365
76.64    312
76.66    297
76.68    336
76.7     303
76.72    318
76.74    383
76.76    345
76.78    355
76.8     392
76.82    404
76.84    467
76.86    486
76.88    531
76.9     504
76.92    502
76.94    489
76.96    494
76.98    498
77.0     457
77.02    471
77.04    534
77.06    444
77.08    458
77.1     500
77.12    564
77.14    577
77.16    676
77.18    706
77.2     776
77.22    790
77.24    815
77.26    792
77.28    930
77.3     1035
77.32    1122
77.34    1218
77.36    1356
77.38    1463
77.4     1640
77.42    1759
77.44    1925
77.46    2171
77.48    2475
77.5     2749
77.52    3057
77.54    3429
77.56    3708
77.58    3966
77.6     4160
77.62    4253
77.64    4301
77.66    4294
77.68    4195
77.7     3992
77.72    3762
77.74    3524
77.76    3220
77.78    2954
77.8     2763
77.82    2548
77.84    2379
77.86    2204
77.88    2005
77.9     1775
77.92    1560
77.94    1377
77.96    1227
77.98    1172
78.0     1151
78.02    1033
78.04    989
78.06    906
78.08    880
78.1     851
78.12    835
78.14    821
78.16    793
78.18    773
78.2     678
78.22    711
78.24    711
78.26    664
78.28    699
78.3     674
78.32    567
78.34    529
78.36    440
78.38    414
78.4     392
78.42    511
78.44    545
78.46    511
78.48    505
78.5     472
78.52    462
78.54    574
78.56    597
78.58    604
78.6     621
78.62    617
78.64    615
78.66    516
78.68    453
78.7     423
78.72    390
78.74    390
78.76    367
78.78    309
78.8     358
78.82    374
78.84    463
78.86    511
78.88    477
78.9     408
78.92    341
78.94    337
78.96    319
78.98    304
79.0     332
79.02    418
79.04    471
79.06    481
79.08    363
79.1     347
79.12    373
79.14    437
79.16    438
79.18    414
79.2     414
79.22    433
79.24    401
79.26    317
79.28    258
79.3     341
79.32    413
79.34    423
79.36    381
79.38    358
79.4     411
79.42    440
79.44    442
79.46    385
79.48    441
79.5     460
79.52    410
79.54    290
79.56    209
79.58    218
79.6     270
79.62    330
79.64    354
79.66    398
79.68    471
79.7     413
79.72    360
79.74    319
79.76    279
79.78    286
79.8     239
79.82    256
79.84    259
79.86    330
79.88    412
79.9     472
79.92    556
79.94    649
79.96    690
79.98    699
80.0     651
80.02    680
80.04    663
80.06    663
80.08    633
80.1     599
80.12    560
80.14    533
80.16    492
80.18    466
80.2     416
80.22    395
80.24    340
80.26    269
80.28    218
80.3     230
80.32    291
80.34    346
80.36    440
80.38    530
80.4     538
80.42    493
80.44    482
80.46    439
80.48    411
80.5     428
80.52    471
80.54    413
80.56    372
80.58    328
80.6     251
80.62    235
80.64    296
80.66    309
80.68    318
80.7     378
80.72    441
80.74    379
80.76    307
80.78    301
80.8     302
80.82    382
80.84    398
80.86    331
80.88    272
80.9     279
80.92    326
80.94    316
80.96    249
80.98    339
81.0     363
81.02    372
81.04    338
81.06    246
81.08    238
81.1     289
81.12    376
81.14    388
81.16    314
81.18    361
81.2     391
81.22    357
81.24    291
81.26    222
81.28    242
81.3     286
81.32    280
81.34    299
81.36    268
81.38    271
81.4     341
81.42    298
81.44    236
81.46    252
81.48    310
81.5     331
81.52    326
81.54    388
81.56    431
81.58    418
81.6     399
81.62    323
81.64    298
81.66    295
81.68    318
81.7     279
81.72    246
81.74    247
81.76    304
81.78    249
81.8     222
81.82    214
81.84    265
81.86    320
81.88    324
81.9     337
81.92    388
81.94    406
81.96    435
81.98    395
82.0     391
82.02    361
82.04    424
82.06    394
82.08    320
82.1     293
82.12    316
82.14    259
82.16    249
82.18    228
82.2     237
82.22    200
82.24    223
82.26    217
82.28    258
82.3     267
82.32    335
82.34    389
82.36    420
82.38    431
82.4     450
82.42    404
82.44    387
82.46    443
82.48    413
82.5     433
82.52    429
82.54    446
82.56    436
82.58    419
82.6     383
82.62    342
82.64    297
82.66    275
82.68    183
82.7     186
82.72    159
82.74    201
82.76    269
82.78    314
82.8     359
82.82    324
82.84    360
82.86    390
82.88    394
82.9     390
82.92    421
82.94    430
82.96    468
82.98    446
83.0     427
83.02    389
83.04    390
83.06    379
83.08    375
83.1     328
83.12    393
83.14    407
83.16    459
83.18    399
83.2     377
83.22    370
83.24    282
83.26    261
83.28    272
83.3     227
83.32    238
83.34    281
83.36    299
83.38    275
83.4     264
83.42    257
83.44    282
83.46    322
83.48    324
83.5     315
83.52    301
83.54    346
83.56    388
83.58    415
83.6     354
83.62    375
83.64    409
83.66    427
83.68    408
83.7     416
83.72    386
83.74    326
83.76    340
83.78    289
83.8     234
83.82    287
83.84    341
83.86    455
83.88    487
83.9     473
83.92    470
83.94    380
83.96    359
83.98    295
84.0     231
84.02    228
84.04    288
84.06    315
84.08    251
84.1     205
84.12    187
84.14    124
84.16    132
84.18    110
84.2     162
84.22    262
84.24    368
84.26    400
84.28    406
84.3     467
84.32    500
84.34    511
84.36    508
84.38    503
84.4     539
84.42    556
84.44    527
84.46    470
84.48    443
84.5     465
84.52    525
84.54    516
84.56    394
84.58    362
84.6     395
84.62    443
84.64    405
84.66    376
84.68    377
84.7     459
84.72    542
84.74    479
84.76    316
84.78    271
84.8     298
84.82    385
84.84    395
84.86    393
84.88    386
84.9     496
84.92    525
84.94    508
84.96    425
84.98    400
85.0     483
85.02    533
85.04    537
85.06    515
85.08    468
85.1     467
85.12    405
85.14    404
85.16    284
85.18    254
85.2     307
85.22    312
85.24    407
85.26    356
85.28    369
85.3     371
85.32    393
85.34    438
85.36    395
85.38    451
85.4     454
85.42    480
85.44    477
85.46    456
85.48    447
85.5     396
85.52    443
85.54    447
85.56    455
85.58    422
85.6     390
85.62    348
85.64    263
85.66    251
85.68    176
85.7     164
85.72    203
85.74    223
85.76    292
85.78    294
85.8     340
85.82    308
85.84    263
85.86    246
85.88    291
85.9     336
85.92    357
85.94    415
85.96    494
85.98    537
86.0     562
86.02    500
86.04    451
86.06    441
86.08    403
86.1     391
86.12    399
86.14    460
86.16    504
86.18    573
86.2     577
86.22    530
86.24    511
86.26    535
86.28    575
86.3     639
86.32    670
86.34    734
86.36    755
86.38    804
86.4     798
86.42    829
86.44    819
86.46    816
86.48    940
86.5     937
86.52    902
86.54    885
86.56    904
86.58    985
86.6     1031
86.62    1041
86.64    1004
86.66    926
86.68    884
86.7     750
86.72    662
86.74    558
86.76    553
86.78    562
86.8     581
86.82    570
86.84    547
86.86    480
86.88    356
86.9     314
86.92    280
86.94    297
86.96    356
86.98    415
87.0     473
87.02    528
87.04    534
87.06    517
87.08    442
87.1     431
87.12    424
87.14    504
87.16    556
87.18    614
87.2     595
87.22    548
87.24    553
87.26    514
87.28    457
87.3     385
87.32    348
87.34    333
87.36    269
87.38    330
87.4     282
87.42    290
87.44    352
87.46    317
87.48    308
87.5     272
87.52    218
87.54    137
87.56    130
87.58    219
87.6     266
87.62    398
87.64    435
87.66    408
87.68    376
87.7     398
87.72    388
87.74    376
87.76    375
87.78    371
87.8     502
87.82    597
87.84    632
87.86    554
87.88    454
87.9     406
87.92    346
87.94    258
87.96    171
87.98    144
88.0     200
88.02    227
88.04    239
88.06    240
88.08    197
88.1     147
88.12    145
88.14    224
88.16    318
88.18    363
88.2     367
88.22    401
88.24    426
88.26    470
88.28    468
88.3     435
88.32    478
88.34    527
88.36    527
88.38    520
88.4     476
88.42    451
88.44    420
88.46    400
88.48    420
88.5     384
88.52    387
88.54    322
88.56    301
88.58    306
88.6     192
88.62    239
88.64    249
88.66    313
88.68    365
88.7     357
88.72    422
88.74    415
88.76    451
88.78    457
88.8     400
88.82    501
88.84    492
88.86    552
88.88    532
88.9     398
88.92    380
88.94    322
88.96    290
88.98    291
89.0     288
89.02    318
89.04    378
89.06    414
89.08    382
89.1     278
89.12    273
89.14    192
89.16    168
89.18    228
89.2     250
89.22    334
89.24    444
89.26    400
89.28    390
89.3     381
89.32    324
89.34    267
89.36    269
89.38    349
89.4     374
89.42    433
89.44    472
89.46    411
89.48    407
89.5     304
89.52    237
89.54    249
89.56    236
89.58    281
89.6     323
89.62    431
89.64    455
89.66    503
89.68    490
89.7     493
89.72    538
89.74    521
89.76    509
89.78    497
89.8     528
89.82    537
89.84    458
89.86    475
89.88    456
89.9     489
89.92    499
89.94    476
89.96    499
89.98    499
90.0     482
