?
5.0      472
5.02     472
5.04     606
5.06     575
5.08     596
5.1      596
5.12     549
5.14     573
5.16     555
5.18     580
5.2      581
5.22     564
5.24     580
5.26     565
5.28     569
5.3      540
5.32     554
5.34     626
5.36     635
5.38     650
5.4      645
5.42     647
5.44     629
5.46     583
5.48     563
5.5      541
5.52     552
5.54     540
5.56     511
5.58     529
5.6      543
5.62     542
5.64     527
5.66     517
5.68     568
5.7      571
5.72     568
5.74     543
5.76     536
5.78     562
5.8      529
5.82     528
5.84     492
5.86     462
5.88     521
5.9      492
5.92     515
5.94     525
5.96     488
5.98     488
6.0      481
6.02     525
6.04     497
6.06     478
6.08     522
6.1      491
6.12     535
6.14     544
6.16     554
6.18     583
6.2      624
6.22     611
6.24     626
6.26     588
6.28     571
6.3      550
6.32     571
6.34     584
6.36     614
6.38     608
6.4      589
6.42     547
6.44     573
6.46     527
6.48     530
6.5      545
6.52     558
6.54     561
6.56     576
6.58     572
6.6      557
6.62     541
6.64     511
6.66     500
6.68     502
6.7      483
6.72     458
6.74     413
6.76     435
6.78     445
6.8      471
6.82     475
6.84     484
6.86     560
6.88     591
6.9      595
6.92     622
6.94     569
6.96     588
6.98     564
7.0      571
7.02     530
7.04     533
7.06     510
7.08     531
7.1      520
7.12     581
7.14     522
7.16     513
7.18     525
7.2      546
7.22     544
7.24     559
7.26     548
7.28     631
7.3      625
7.32     641
7.34     584
7.36     505
7.38     527
7.4      472
7.42     477
7.44     510
7.46     543
7.48     581
7.5      631
7.52     607
7.54     607
7.56     531
7.58     555
7.6      515
7.62     518
7.64     529
7.66     523
7.68     551
7.7      638
7.72     589
7.74     632
7.76     627
7.78     595
7.8      621
7.82     576
7.84     595
7.86     607
7.88     597
7.9      653
7.92     654
7.94     694
7.96     711
7.98     625
8.0      675
8.02     646
8.04     619
8.06     612
8.08     536
8.1      620
8.12     624
8.14     616
8.16     640
8.18     601
8.2      673
8.22     688
8.24     683
8.26     690
8.28     662
8.3      709
8.32     654
8.34     631
8.36     625
8.38     606
8.4      662
8.42     666
8.44     665
8.46     656
8.48     641
8.5      676
8.52     679
8.54     686
8.56     717
8.58     768
8.6      756
8.62     759
8.64     684
8.66     672
8.68     674
8.7      658
8.72     652
8.74     687
8.76     679
8.78     741
8.8      716
8.82     726
8.84     705
8.86     723
8.88     720
8.9      671
8.92     690
8.94     736
8.96     755
8.98     744
9.0      756
9.02     732
9.04     765
9.06     713
9.08     707
9.1      708
9.12     698
9.14     748
9.16     799
9.18     725
9.2      698
9.22     656
9.24     672
9.26     647
9.28     696
9.3      713
9.32     742
9.34     780
9.36     792
9.38     751
9.4      680
9.42     667
9.44     641
9.46     656
9.48     678
9.5      671
9.52     716
9.54     713
9.56     689
9.58     684
9.6      701
9.62     687
9.64     660
9.66     701
9.68     645
9.7      624
9.72     604
9.74     633
9.76     632
9.78     656
9.8      720
9.82     708
9.84     732
9.86     762
9.88     705
9.9      684
9.92     653
9.94     686
9.96     653
9.98     619
10.0     633
10.02    625
10.04    620
10.06    650
10.08    678
10.1     672
10.12    692
10.14    673
10.16    623
10.18    598
10.2     611
10.22    588
10.24    578
10.26    626
10.28    637
10.3     586
10.32    659
10.34    645
10.36    609
10.38    618
10.4     697
10.42    669
10.44    709
10.46    700
10.48    658
10.5     703
10.52    717
10.54    583
10.56    569
10.58    565
10.6     578
10.62    516
10.64    559
10.66    570
10.68    574
10.7     620
10.72    618
10.74    556
10.76    572
10.78    533
10.8     484
10.82    495
10.84    564
10.86    552
10.88    536
10.9     569
10.92    678
10.94    652
10.96    648
10.98    629
11.0     623
11.02    671
11.04    701
11.06    632
11.08    623
11.1     607
11.12    669
11.14    646
11.16    688
11.18    651
11.2     616
11.22    645
11.24    688
11.26    635
11.28    635
11.3     629
11.32    688
11.34    691
11.36    708
11.38    638
11.4     580
11.42    617
11.44    638
11.46    621
11.48    625
11.5     702
11.52    744
11.54    712
11.56    703
11.58    668
11.6     653
11.62    652
11.64    644
11.66    681
11.68    691
11.7     753
11.72    778
11.74    713
11.76    709
11.78    738
11.8     718
11.82    692
11.84    688
11.86    717
11.88    685
11.9     758
11.92    789
11.94    737
11.96    759
11.98    790
12.0     802
12.02    768
12.04    779
12.06    812
12.08    822
12.1     844
12.12    818
12.14    797
12.16    789
12.18    783
12.2     804
12.22    778
12.24    761
12.26    804
12.28    837
12.3     810
12.32    815
12.34    818
12.36    797
12.38    789
12.4     784
12.42    762
12.44    742
12.46    831
12.48    860
12.5     834
12.52    852
12.54    839
12.56    820
12.58    785
12.6     752
12.62    740
12.64    799
12.66    866
12.68    842
12.7     793
12.72    872
12.74    908
12.76    935
12.78    893
12.8     868
12.82    834
12.84    865
12.86    880
12.88    876
12.9     830
12.92    930
12.94    1025
12.96    1032
12.98    971
13.0     973
13.02    961
13.04    980
13.06    987
13.08    978
13.1     899
13.12    911
13.14    957
13.16    989
13.18    998
13.2     1042
13.22    1101
13.24    1101
13.26    1054
13.28    995
13.3     896
13.32    827
13.34    845
13.36    900
13.38    942
13.4     987
13.42    1032
13.44    1030
13.46    1038
13.48    1061
13.5     1004
13.52    1009
13.54    1075
13.56    1091
13.58    1130
13.6     1162
13.62    1203
13.64    1164
13.66    1239
13.68    1274
13.7     1251
13.72    1250
13.74    1227
13.76    1167
13.78    1159
13.8     1125
13.82    1104
13.84    1057
13.86    1106
13.88    1163
13.9     1164
13.92    1164
13.94    1256
13.96    1282
13.98    1327
14.0     1310
14.02    1293
14.04    1243
14.06    1216
14.08    1255
14.1     1220
14.12    1266
14.14    1356
14.16    1337
14.18    1328
14.2     1247
14.22    1240
14.24    1230
14.26    1193
14.28    1207
14.3     1210
14.32    1295
14.34    1350
14.36    1333
14.38    1313
14.4     1311
14.42    1367
14.44    1341
14.46    1281
14.48    1305
14.5     1340
14.52    1323
14.54    1287
14.56    1313
14.58    1375
14.6     1404
14.62    1362
14.64    1403
14.66    1473
14.68    1480
14.7     1483
14.72    1447
14.74    1414
14.76    1416
14.78    1427
14.8     1426
14.82    1356
14.84    1449
14.86    1504
14.88    1502
14.9     1522
14.92    1617
14.94    1579
14.96    1548
14.98    1620
15.0     1633
15.02    1497
15.04    1459
15.06    1476
15.08    1413
15.1     1356
15.12    1405
15.14    1410
15.16    1416
15.18    1439
15.2     1431
15.22    1402
15.24    1385
15.26    1424
15.28    1437
15.3     1442
15.32    1445
15.34    1464
15.36    1453
15.38    1418
15.4     1452
15.42    1520
15.44    1507
15.46    1530
15.48    1563
15.5     1550
15.52    1514
15.54    1528
15.56    1507
15.58    1529
15.6     1541
15.62    1547
15.64    1503
15.66    1496
15.68    1549
15.7     1573
15.72    1566
15.74    1619
15.76    1652
15.78    1741
15.8     1751
15.82    1807
15.84    1858
15.86    1929
15.88    2020
15.9     2009
15.92    1967
15.94    2012
15.96    2063
15.98    2137
16.0     2179
16.02    2251
16.04    2385
16.06    2536
16.08    2636
16.1     2732
16.12    2898
16.14    3169
16.16    3402
16.18    3669
16.2     3956
16.22    4300
16.24    4777
16.26    5299
16.28    5944
16.3     6806
16.32    7867
16.34    9226
16.36    10754
16.38    12740
16.4     15193
16.42    18147
16.44    21680
16.46    25700
16.48    30044
16.5     34325
16.52    38066
16.54    40571
16.56    41288
16.58    40109
16.6     37045
16.62    32498
16.64    27175
16.66    21725
16.68    16808
16.7     12771
16.72    9794
16.74    7661
16.76    6176
16.78    5175
16.8     4519
16.82    3970
16.84    3550
16.86    3256
16.88    3016
16.9     2783
16.92    2596
16.94    2474
16.96    2244
16.98    2141
17.0     2117
17.02    1975
17.04    1905
17.06    1951
17.08    1925
17.1     1893
17.12    1818
17.14    1771
17.16    1635
17.18    1622
17.2     1587
17.22    1498
17.24    1556
17.26    1613
17.28    1594
17.3     1581
17.32    1573
17.34    1549
17.36    1524
17.38    1542
17.4     1515
17.42    1493
17.44    1517
17.46    1511
17.48    1503
17.5     1402
17.52    1340
17.54    1294
17.56    1287
17.58    1280
17.6     1256
17.62    1236
17.64    1287
17.66    1380
17.68    1416
17.7     1333
17.72    1323
17.74    1386
17.76    1356
17.78    1296
17.8     1169
17.82    1106
17.84    1167
17.86    1200
17.88    1203
17.9     1175
17.92    1183
17.94    1278
17.96    1281
17.98    1240
18.0     1136
18.02    1177
18.04    1244
18.06    1241
18.08    1212
18.1     1197
18.12    1161
18.14    1151
18.16    1135
18.18    1134
18.2     1084
18.22    1108
18.24    1123
18.26    1164
18.28    1129
18.3     1122
18.32    1101
18.34    1083
18.36    1124
18.38    1104
18.4     1011
18.42    981
18.44    1029
18.46    1042
18.48    1016
18.5     995
18.52    999
18.54    1007
18.56    997
18.58    891
18.6     860
18.62    897
18.64    950
18.66    914
18.68    939
18.7     958
18.72    961
18.74    967
18.76    945
18.78    943
18.8     992
18.82    998
18.84    971
18.86    933
18.88    948
18.9     901
18.92    886
18.94    896
18.96    927
18.98    918
19.0     904
19.02    908
19.04    951
19.06    929
19.08    910
19.1     862
19.12    905
19.14    895
19.16    878
19.18    839
19.2     817
19.22    878
19.24    881
19.26    848
19.28    791
19.3     771
19.32    754
19.34    728
19.36    727
19.38    809
19.4     846
19.42    845
19.44    793
19.46    856
19.48    815
19.5     802
19.52    751
19.54    709
19.56    698
19.58    749
19.6     714
19.62    627
19.64    560
19.66    596
19.68    619
19.7     644
19.72    639
19.74    589
19.76    634
19.78    634
19.8     663
19.82    653
19.84    595
19.86    565
19.88    652
19.9     658
19.92    640
19.94    566
19.96    604
19.98    592
20.0     620
20.02    633
20.04    559
20.06    560
20.08    621
20.1     660
20.12    619
20.14    609
20.16    647
20.18    616
20.2     582
20.22    601
20.24    568
20.26    597
20.28    564
20.3     573
20.32    566
20.34    629
20.36    605
20.38    567
20.4     557
20.42    600
20.44    616
20.46    596
20.48    527
20.5     507
20.52    544
20.54    555
20.56    482
20.58    534
20.6     576
20.62    648
20.64    683
20.66    730
20.68    692
20.7     672
20.72    613
20.74    582
20.76    543
20.78    562
20.8     561
20.82    576
20.84    561
20.86    571
20.88    551
20.9     580
20.92    555
20.94    571
20.96    571
20.98    515
21.0     545
21.02    538
21.04    561
21.06    597
21.08    608
21.1     582
21.12    512
21.14    495
21.16    405
21.18    385
21.2     408
21.22    395
21.24    504
21.26    560
21.28    562
21.3     490
21.32    466
21.34    465
21.36    405
21.38    473
21.4     485
21.42    475
21.44    556
21.46    547
21.48    564
21.5     509
21.52    517
21.54    486
21.56    481
21.58    508
21.6     521
21.62    493
21.64    467
21.66    404
21.68    407
21.7     418
21.72    492
21.74    521
21.76    422
21.78    412
21.8     462
21.82    480
21.84    435
21.86    391
21.88    384
21.9     431
21.92    469
21.94    455
21.96    363
21.98    455
22.0     523
22.02    549
22.04    539
22.06    479
22.08    462
22.1     423
22.12    392
22.14    344
22.16    338
22.18    335
22.2     339
22.22    391
22.24    467
22.26    512
22.28    553
22.3     573
22.32    570
22.34    451
22.36    421
22.38    384
22.4     380
22.42    373
22.44    404
22.46    463
22.48    466
22.5     516
22.52    521
22.54    499
22.56    501
22.58    491
22.6     467
22.62    435
22.64    430
22.66    430
22.68    376
22.7     332
22.72    329
22.74    349
22.76    369
22.78    354
22.8     377
22.82    351
22.84    386
22.86    390
22.88    391
22.9     344
22.92    371
22.94    393
22.96    404
22.98    336
23.0     321
23.02    291
23.04    346
23.06    405
23.08    440
23.1     475
23.12    517
23.14    508
23.16    449
23.18    383
23.2     342
23.22    275
23.24    250
23.26    258
23.28    255
23.3     309
23.32    344
23.34    395
23.36    437
23.38    458
23.4     486
23.42    471
23.44    494
23.46    514
23.48    484
23.5     442
23.52    351
23.54    337
23.56    368
23.58    382
23.6     377
23.62    341
23.64    355
23.66    368
23.68    369
23.7     381
23.72    289
23.74    332
23.76    380
23.78    428
23.8     418
23.82    430
23.84    415
23.86    399
23.88    383
23.9     355
23.92    276
23.94    290
23.96    286
23.98    272
24.0     229
24.02    282
24.04    265
24.06    265
24.08    278
24.1     370
24.12    432
24.14    473
24.16    436
24.18    394
24.2     321
24.22    388
24.24    364
24.26    381
24.28    370
24.3     393
24.32    386
24.34    369
24.36    311
24.38    275
24.4     255
24.42    328
24.44    343
24.46    359
24.48    351
24.5     352
24.52    429
24.54    477
24.56    478
24.58    415
24.6     381
24.62    315
24.64    301
24.66    259
24.68    299
24.7     287
24.72    420
24.74    409
24.76    459
24.78    351
24.8     345
24.82    292
24.84    326
24.86    319
24.88    314
24.9     305
24.92    295
24.94    242
24.96    269
24.98    235
25.0     251
25.02    262
25.04    325
25.06    382
25.08    359
25.1     369
25.12    260
25.14    283
25.16    254
25.18    253
25.2     200
25.22    268
25.24    268
25.26    280
25.28    257
25.3     323
25.32    342
25.34    394
25.36    347
25.38    294
25.4     240
25.42    273
25.44    233
25.46    260
25.48    178
25.5     214
25.52    256
25.54    346
25.56    344
25.58    315
25.6     261
25.62    316
25.64    324
25.66    327
25.68    192
25.7     202
25.72    256
25.74    353
25.76    374
25.78    309
25.8     259
25.82    267
25.84    287
25.86    244
25.88    182
25.9     188
25.92    206
25.94    208
25.96    234
25.98    227
26.0     307
26.02    374
26.04    437
26.06    437
26.08    384
26.1     365
26.12    301
26.14    248
26.16    221
26.18    219
26.2     223
26.22    257
26.24    298
26.26    413
26.28    414
26.3     440
26.32    397
26.34    353
26.36    281
26.38    269
26.4     258
26.42    333
26.44    401
26.46    497
26.48    434
26.5     413
26.52    368
26.54    343
26.56    276
26.58    240
26.6     225
26.62    269
26.64    304
26.66    316
26.68    300
26.7     329
26.72    373
26.74    399
26.76    382
26.78    334
26.8     340
26.82    320
26.84    314
26.86    265
26.88    220
26.9     160
26.92    137
26.94    155
26.96    252
26.98    285
27.0     326
27.02    325
27.04    289
27.06    261
27.08    237
27.1     212
27.12    215
27.14    223
27.16    242
27.18    241
27.2     264
27.22    299
27.24    283
27.26    332
27.28    330
27.3     357
27.32    347
27.34    355
27.36    336
27.38    312
27.4     323
27.42    349
27.44    338
27.46    305
27.48    221
27.5     275
27.52    341
27.54    403
27.56    354
27.58    289
27.6     234
27.62    281
27.64    320
27.66    360
27.68    310
27.7     380
27.72    410
27.74    351
27.76    341
27.78    272
27.8     256
27.82    302
27.84    328
27.86    368
27.88    248
27.9     241
27.92    217
27.94    221
27.96    312
27.98    324
28.0     387
28.02    384
28.04    386
28.06    374
28.08    271
28.1     264
28.12    235
28.14    256
28.16    288
28.18    292
28.2     299
28.22    272
28.24    277
28.26    264
28.28    320
28.3     334
28.32    318
28.34    304
28.36    292
28.38    282
28.4     297
28.42    287
28.44    304
28.46    339
28.48    438
28.5     414
28.52    354
28.54    285
28.56    253
28.58    276
28.6     322
28.62    330
28.64    305
28.66    283
28.68    289
28.7     294
28.72    289
28.74    258
28.76    241
28.78    197
28.8     177
28.82    184
28.84    194
28.86    216
28.88    285
28.9     301
28.92    296
28.94    309
28.96    271
28.98    209
29.0     243
29.02    340
29.04    398
29.06    470
29.08    429
29.1     333
29.12    284
29.14    282
29.16    249
29.18    289
29.2     388
29.22    448
29.24    494
29.26    477
29.28    373
29.3     320
29.32    280
29.34    268
29.36    242
29.38    260
29.4     283
29.42    232
29.44    257
29.46    268
29.48    250
29.5     323
29.52    339
29.54    371
29.56    335
29.58    256
29.6     190
29.62    95
29.64    147
29.66    272
29.68    320
29.7     434
29.72    425
29.74    462
29.76    459
29.78    370
29.8     355
29.82    331
29.84    324
29.86    335
29.88    297
29.9     302
29.92    318
29.94    333
29.96    324
29.98    260
30.0     241
30.02    232
30.04    169
30.06    203
30.08    264
30.1     306
30.12    351
30.14    341
30.16    317
30.18    301
30.2     288
30.22    308
30.24    315
30.26    338
30.28    291
30.3     237
30.32    195
30.34    208
30.36    208
30.38    216
30.4     235
30.42    247
30.44    218
30.46    162
30.48    152
30.5     175
30.52    228
30.54    324
30.56    421
30.58    442
30.6     483
30.62    483
30.64    390
30.66    310
30.68    235
30.7     189
30.72    190
30.74    207
30.76    253
30.78    215
30.8     259
30.82    301
30.84    305
30.86    317
30.88    289
30.9     320
30.92    317
30.94    290
30.96    227
30.98    193
31.0     148
31.02    197
31.04    291
31.06    294
31.08    310
31.1     308
31.12    310
31.14    286
31.16    265
31.18    265
31.2     228
31.22    277
31.24    278
31.26    167
31.28    148
31.3     135
31.32    166
31.34    259
31.36    357
31.38    424
31.4     454
31.42    386
31.44    330
31.46    229
31.48    145
31.5     189
31.52    207
31.54    300
31.56    408
31.58    359
31.6     363
31.62    322
31.64    318
31.66    350
31.68    347
31.7     399
31.72    408
31.74    431
31.76    429
31.78    257
31.8     200
31.82    182
31.84    199
31.86    336
31.88    423
31.9     452
31.92    458
31.94    421
31.96    327
31.98    251
32.0     229
32.02    293
32.04    349
32.06    391
32.08    378
32.1     389
32.12    325
32.14    356
32.16    391
32.18    449
32.2     524
32.22    542
32.24    533
32.26    523
32.28    476
32.3     529
32.32    544
32.34    571
32.36    612
32.38    615
32.4     614
32.42    610
32.44    583
32.46    535
32.48    442
32.5     385
32.52    364
32.54    321
32.56    366
32.58    388
32.6     364
32.62    369
32.64    366
32.66    378
32.68    395
32.7     378
32.72    418
32.74    459
32.76    494
32.78    484
32.8     478
32.82    470
32.84    532
32.86    609
32.88    654
32.9     660
32.92    605
32.94    558
32.96    524
32.98    501
33.0     530
33.02    538
33.04    542
33.06    599
33.08    607
33.1     589
33.12    575
33.14    649
33.16    696
33.18    882
33.2     1056
33.22    1199
33.24    1304
33.26    1456
33.28    1554
33.3     1708
33.32    1966
33.34    2322
33.36    2720
33.38    3321
33.4     3979
33.42    4681
33.44    5459
33.46    6198
33.48    6835
33.5     7369
33.52    7768
33.54    7903
33.56    7802
33.58    7499
33.6     6979
33.62    6330
33.64    5555
33.66    4676
33.68    3844
33.7     3127
33.72    2490
33.74    2001
33.76    1699
33.78    1441
33.8     1238
33.82    1117
33.84    955
33.86    837
33.88    783
33.9     714
33.92    702
33.94    749
33.96    799
33.98    768
34.0     764
34.02    696
34.04    651
34.06    638
34.08    624
34.1     583
34.12    602
34.14    534
34.16    515
34.18    527
34.2     522
34.22    508
34.24    591
34.26    600
34.28    552
34.3     502
34.32    488
34.34    464
34.36    507
34.38    618
34.4     641
34.42    653
34.44    658
34.46    560
34.48    438
34.5     442
34.52    500
34.54    598
34.56    641
34.58    674
34.6     617
34.62    524
34.64    444
34.66    404
34.68    387
34.7     439
34.72    431
34.74    550
34.76    549
34.78    597
34.8     664
34.82    799
34.84    936
34.86    1067
34.88    1155
34.9     1165
34.92    1209
34.94    1404
34.96    1587
34.98    1958
35.0     2559
35.02    3337
35.04    4192
35.06    5190
35.08    6166
35.1     6969
35.12    7652
35.14    8161
35.16    8382
35.18    8316
35.2     7939
35.22    7287
35.24    6450
35.26    5510
35.28    4556
35.3     3673
35.32    2958
35.34    2426
35.36    2069
35.38    1754
35.4     1543
35.42    1364
35.44    1204
35.46    1064
35.48    992
35.5     930
35.52    835
35.54    739
35.56    674
35.58    607
35.6     618
35.62    622
35.64    685
35.66    694
35.68    704
35.7     722
35.72    681
35.74    666
35.76    596
35.78    568
35.8     577
35.82    612
35.84    647
35.86    583
35.88    596
35.9     596
35.92    586
35.94    615
35.96    657
35.98    676
36.0     775
36.02    863
36.04    901
36.06    889
36.08    874
36.1     822
36.12    848
36.14    954
36.16    1086
36.18    1230
36.2     1475
36.22    1757
36.24    2015
36.26    2309
36.28    2701
36.3     3103
36.32    3667
36.34    4552
36.36    5621
36.38    7008
36.4     8745
36.42    10749
36.44    12717
36.46    14604
36.48    16114
36.5     16917
36.52    17090
36.54    16736
36.56    15616
36.58    14051
36.6     12288
36.62    10483
36.64    8695
36.66    7181
36.68    5789
36.7     4607
36.72    3715
36.74    3023
36.76    2445
36.78    1979
36.8     1653
36.82    1434
36.84    1308
36.86    1259
36.88    1222
36.9     1150
36.92    1120
36.94    1011
36.96    914
36.98    802
37.0     764
37.02    728
37.04    754
37.06    798
37.08    811
37.1     767
37.12    751
37.14    663
37.16    631
37.18    690
37.2     753
37.22    710
37.24    756
37.26    753
37.28    652
37.3     613
37.32    602
37.34    589
37.36    677
37.38    828
37.4     866
37.42    819
37.44    849
37.46    825
37.48    709
37.5     693
37.52    673
37.54    620
37.56    605
37.58    618
37.6     537
37.62    494
37.64    490
37.66    474
37.68    440
37.7     486
37.72    509
37.74    535
37.76    612
37.78    665
37.8     690
37.82    717
37.84    747
37.86    696
37.88    676
37.9     642
37.92    578
37.94    500
37.96    519
37.98    521
38.0     506
38.02    480
38.04    490
38.06    443
38.08    416
38.1     392
38.12    387
38.14    342
38.16    383
38.18    413
38.2     404
38.22    423
38.24    423
38.26    365
38.28    317
38.3     371
38.32    393
38.34    412
38.36    492
38.38    532
38.4     479
38.42    467
38.44    402
38.46    338
38.48    294
38.5     319
38.52    317
38.54    340
38.56    397
38.58    437
38.6     456
38.62    499
38.64    546
38.66    577
38.68    530
38.7     484
38.72    453
38.74    372
38.76    336
38.78    353
38.8     365
38.82    349
38.84    343
38.86    363
38.88    289
38.9     273
38.92    302
38.94    339
38.96    427
38.98    500
39.0     537
39.02    572
39.04    522
39.06    521
39.08    391
39.1     341
39.12    327
39.14    320
39.16    330
39.18    361
39.2     345
39.22    398
39.24    406
39.26    441
39.28    362
39.3     378
39.32    355
39.34    319
39.36    312
39.38    343
39.4     328
39.42    401
39.44    474
39.46    499
39.48    449
39.5     430
39.52    360
39.54    348
39.56    322
39.58    345
39.6     348
39.62    394
39.64    438
39.66    412
39.68    391
39.7     395
39.72    389
39.74    428
39.76    463
39.78    576
39.8     564
39.82    570
39.84    544
39.86    454
39.88    420
39.9     440
39.92    418
39.94    410
39.96    442
39.98    506
40.0     511
40.02    554
40.04    622
40.06    709
40.08    820
40.1     868
40.12    933
40.14    880
40.16    829
40.18    803
40.2     754
40.22    727
40.24    739
40.26    798
40.28    828
40.3     838
40.32    900
40.34    850
40.36    828
40.38    834
40.4     787
40.42    720
40.44    642
40.46    644
40.48    669
40.5     729
40.52    793
40.54    890
40.56    973
40.58    1053
40.6     1065
40.62    995
40.64    913
40.66    898
40.68    848
40.7     839
40.72    888
40.74    921
40.76    951
40.78    981
40.8     1044
40.82    1069
40.84    1062
40.86    1152
40.88    1171
40.9     1269
40.92    1363
40.94    1452
40.96    1524
40.98    1570
41.0     1668
41.02    1717
41.04    1759
41.06    1892
41.08    2019
41.1     2271
41.12    2489
41.14    2759
41.16    3017
41.18    3276
41.2     3628
41.22    3976
41.24    4476
41.26    5139
41.28    5994
41.3     7011
41.32    8288
41.34    9830
41.36    11710
41.38    14131
41.4     17000
41.42    20628
41.44    24988
41.46    30280
41.48    36252
41.5     42640
41.52    48800
41.54    53831
41.56    57223
41.58    58479
41.6     57166
41.62    53841
41.64    48913
41.66    43017
41.68    36812
41.7     30923
41.72    25629
41.74    20950
41.76    17090
41.78    13915
41.8     11318
41.82    9408
41.84    8089
41.86    6915
41.88    6018
41.9     5333
41.92    4735
41.94    4101
41.96    3589
41.98    3146
42.0     2771
42.02    2550
42.04    2471
42.06    2373
42.08    2324
42.1     2260
42.12    2092
42.14    1880
42.16    1729
42.18    1531
42.2     1368
42.22    1276
42.24    1303
42.26    1327
42.28    1296
42.3     1246
42.32    1226
42.34    1147
42.36    1068
42.38    990
42.4     984
42.42    1000
42.44    1091
42.46    1166
42.48    1170
42.5     1188
42.52    1191
42.54    1148
42.56    1047
42.58    970
42.6     892
42.62    798
42.64    736
42.66    708
42.68    746
42.7     767
42.72    738
42.74    799
42.76    746
42.78    679
42.8     586
42.82    556
42.84    581
42.86    582
42.88    650
42.9     748
42.92    789
42.94    812
42.96    742
42.98    723
43.0     658
43.02    590
43.04    539
43.06    540
43.08    616
43.1     689
43.12    756
43.14    787
43.16    834
43.18    886
43.2     858
43.22    829
43.24    742
43.26    765
43.28    692
43.3     619
43.32    638
43.34    622
43.36    585
43.38    575
43.4     573
43.42    573
43.44    518
43.46    557
43.48    536
43.5     584
43.52    638
43.54    622
43.56    638
43.58    664
43.6     604
43.62    553
43.64    552
43.66    557
43.68    538
43.7     532
43.72    553
43.74    567
43.76    640
43.78    648
43.8     649
43.82    665
43.84    649
43.86    605
43.88    498
43.9     395
43.92    359
43.94    426
43.96    476
43.98    482
44.0     491
44.02    511
44.04    550
44.06    531
44.08    453
44.1     479
44.12    517
44.14    602
44.16    588
44.18    553
44.2     479
44.22    471
44.24    472
44.26    462
44.28    523
44.3     588
44.32    623
44.34    621
44.36    646
44.38    566
44.4     516
44.42    464
44.44    422
44.46    409
44.48    383
44.5     341
44.52    345
44.54    373
44.56    452
44.58    454
44.6     637
44.62    694
44.64    674
44.66    647
44.68    601
44.7     533
44.72    412
44.74    390
44.76    434
44.78    490
44.8     599
44.82    692
44.84    779
44.86    840
44.88    930
44.9     1060
44.92    1098
44.94    1172
44.96    1235
44.98    1311
45.0     1376
45.02    1432
45.04    1445
45.06    1460
45.08    1500
45.1     1535
45.12    1439
45.14    1365
45.16    1244
45.18    1135
45.2     1022
45.22    876
45.24    813
45.26    786
45.28    749
45.3     702
45.32    693
45.34    646
45.36    604
45.38    560
45.4     543
45.42    546
45.44    497
45.46    476
45.48    478
45.5     464
45.52    504
45.54    450
45.56    505
45.58    508
45.6     539
45.62    548
45.64    448
45.66    445
45.68    399
45.7     404
45.72    381
45.74    354
45.76    419
45.78    437
45.8     483
45.82    483
45.84    482
45.86    480
45.88    424
45.9     450
45.92    440
45.94    466
45.96    491
45.98    490
46.0     473
46.02    429
46.04    459
46.06    365
46.08    345
46.1     384
46.12    405
46.14    450
46.16    458
46.18    516
46.2     513
46.22    477
46.24    531
46.26    443
46.28    526
46.3     530
46.32    556
46.34    562
46.36    490
46.38    466
46.4     370
46.42    297
46.44    245
46.46    214
46.48    293
46.5     344
46.52    476
46.54    451
46.56    429
46.58    444
46.6     405
46.62    389
46.64    312
46.66    360
46.68    387
46.7     451
46.72    530
46.74    502
46.76    498
46.78    457
46.8     406
46.82    422
46.84    379
46.86    368
46.88    356
46.9     402
46.92    472
46.94    450
46.96    441
46.98    434
47.0     467
47.02    502
47.04    466
47.06    524
47.08    523
47.1     502
47.12    450
47.14    378
47.16    397
47.18    372
47.2     349
47.22    341
47.24    368
47.26    473
47.28    503
47.3     530
47.32    514
47.34    527
47.36    534
47.38    516
47.4     493
47.42    404
47.44    401
47.46    437
47.48    467
47.5     455
47.52    389
47.54    428
47.56    434
47.58    429
47.6     469
47.62    447
47.64    577
47.66    605
47.68    573
47.7     553
47.72    489
47.74    471
47.76    381
47.78    298
47.8     340
47.82    330
47.84    403
47.86    414
47.88    451
47.9     483
47.92    484
47.94    512
47.96    447
47.98    425
48.0     392
48.02    340
48.04    356
48.06    330
48.08    356
48.1     390
48.12    420
48.14    475
48.16    409
48.18    445
48.2     355
48.22    301
48.24    320
48.26    302
48.28    354
48.3     386
48.32    419
48.34    450
48.36    440
48.38    496
48.4     442
48.42    488
48.44    551
48.46    605
48.48    648
48.5     681
48.52    695
48.54    633
48.56    540
48.58    432
48.6     275
48.62    233
48.64    198
48.66    180
48.68    200
48.7     267
48.72    391
48.74    420
48.76    442
48.78    423
48.8     419
48.82    416
48.84    393
48.86    363
48.88    336
48.9     311
48.92    357
48.94    317
48.96    336
48.98    371
49.0     401
49.02    425
49.04    411
49.06    436
49.08    407
49.1     387
49.12    357
49.14    370
49.16    375
49.18    378
49.2     410
49.22    392
49.24    366
49.26    362
49.28    328
49.3     334
49.32    302
49.34    337
49.36    342
49.38    360
49.4     322
49.42    260
49.44    313
49.46    354
49.48    364
49.5     393
49.52    401
49.54    421
49.56    470
49.58    414
49.6     259
49.62    251
49.64    267
49.66    273
49.68    226
49.7     244
49.72    295
49.74    314
49.76    344
49.78    312
49.8     325
49.82    417
49.84    438
49.86    476
49.88    479
49.9     521
49.92    547
49.94    512
49.96    471
49.98    442
50.0     444
50.02    433
50.04    383
50.06    407
50.08    353
50.1     374
50.12    363
50.14    322
50.16    381
50.18    435
50.2     426
50.22    472
50.24    430
50.26    431
50.28    424
50.3     410
50.32    339
50.34    256
50.36    242
50.38    206
50.4     175
50.42    219
50.44    217
50.46    272
50.48    388
50.5     421
50.52    435
50.54    400
50.56    378
50.58    376
50.6     391
50.62    388
50.64    371
50.66    375
50.68    393
50.7     396
50.72    354
50.74    346
50.76    384
50.78    400
50.8     413
50.82    406
50.84    383
50.86    465
50.88    501
50.9     525
50.92    449
50.94    438
50.96    443
50.98    409
51.0     308
51.02    243
51.04    209
51.06    257
51.08    309
51.1     364
51.12    400
51.14    498
51.16    591
51.18    655
51.2     635
51.22    577
51.24    496
51.26    473
51.28    457
51.3     420
51.32    400
51.34    371
51.36    373
51.38    427
51.4     391
51.42    391
51.44    389
51.46    485
51.48    509
51.5     487
51.52    436
51.54    409
51.56    411
51.58    454
51.6     395
51.62    433
51.64    474
51.66    569
51.68    533
51.7     459
51.72    381
51.74    434
51.76    401
51.78    393
51.8     325
51.82    379
51.84    491
51.86    573
51.88    519
51.9     539
51.92    551
51.94    678
51.96    592
51.98    535
52.0     461
52.02    479
52.04    488
52.06    459
52.08    361
52.1     420
52.12    461
52.14    515
52.16    470
52.18    488
52.2     531
52.22    584
52.24    527
52.26    447
52.28    405
52.3     460
52.32    447
52.34    381
52.36    390
52.38    494
52.4     587
52.42    591
52.44    497
52.46    444
52.48    500
52.5     516
52.52    430
52.54    365
52.56    376
52.58    436
52.6     482
52.62    533
52.64    534
52.66    565
52.68    636
52.7     607
52.72    572
52.74    486
52.76    401
52.78    417
52.8     438
52.82    499
52.84    527
52.86    503
52.88    534
52.9     623
52.92    709
52.94    625
52.96    615
52.98    633
53.0     714
53.02    770
53.04    779
53.06    712
53.08    773
53.1     933
53.12    1062
53.14    1079
53.16    1162
53.18    1258
53.2     1453
53.22    1563
53.24    1685
53.26    1727
53.28    1917
53.3     2265
53.32    2532
53.34    2822
53.36    3253
53.38    3675
53.4     4231
53.42    4684
53.44    4989
53.46    5170
53.48    5295
53.5     5240
53.52    4961
53.54    4519
53.56    4171
53.58    3726
53.6     3417
53.62    2992
53.64    2605
53.66    2330
53.68    2068
53.7     1775
53.72    1523
53.74    1267
53.76    1148
53.78    1021
53.8     961
53.82    831
53.84    775
53.86    745
53.88    740
53.9     688
53.92    608
53.94    594
53.96    551
53.98    513
54.0     497
54.02    476
54.04    451
54.06    485
54.08    534
54.1     589
54.12    571
54.14    631
54.16    591
54.18    538
54.2     515
54.22    506
54.24    391
54.26    328
54.28    306
54.3     386
54.32    411
54.34    525
54.36    496
54.38    535
54.4     561
54.42    525
54.44    429
54.46    340
54.48    307
54.5     397
54.52    450
54.54    491
54.56    490
54.58    518
54.6     543
54.62    590
54.64    503
54.66    494
54.68    464
54.7     499
54.72    450
54.74    369
54.76    302
54.78    296
54.8     355
54.82    413
54.84    406
54.86    491
54.88    514
54.9     544
54.92    526
54.94    476
54.96    464
54.98    514
55.0     458
55.02    407
55.04    350
55.06    292
55.08    283
55.1     287
55.12    306
55.14    364
55.16    517
55.18    576
55.2     573
55.22    551
55.24    529
55.26    478
55.28    424
55.3     291
55.32    309
55.34    305
55.36    364
55.38    345
55.4     416
55.42    466
55.44    533
55.46    541
55.48    529
55.5     433
55.52    485
55.54    438
55.56    385
55.58    334
55.6     318
55.62    365
55.64    359
55.66    395
55.68    368
55.7     395
55.72    491
55.74    529
55.76    565
55.78    578
55.8     541
55.82    565
55.84    500
55.86    378
55.88    245
55.9     251
55.92    226
55.94    257
55.96    299
55.98    335
56.0     401
56.02    544
56.04    582
56.06    568
56.08    605
56.1     587
56.12    541
56.14    576
56.16    466
56.18    470
56.2     432
56.22    392
56.24    383
56.26    311
56.28    296
56.3     275
56.32    383
56.34    483
56.36    532
56.38    662
56.4     647
56.42    650
56.44    658
56.46    554
56.48    455
56.5     453
56.52    422
56.54    385
56.56    416
56.58    469
56.6     466
56.62    458
56.64    451
56.66    441
56.68    403
56.7     412
56.72    387
56.74    380
56.76    453
56.78    524
56.8     596
56.82    542
56.84    543
56.86    529
56.88    568
56.9     539
56.92    504
56.94    489
56.96    520
56.98    567
57.0     591
57.02    568
57.04    545
57.06    560
57.08    601
57.1     534
57.12    522
57.14    533
57.16    614
57.18    662
57.2     693
57.22    715
57.24    699
57.26    759
57.28    682
57.3     628
57.32    637
57.34    689
57.36    745
57.38    737
57.4     755
57.42    750
57.44    801
57.46    761
57.48    674
57.5     591
57.52    542
57.54    573
57.56    570
57.58    640
57.6     696
57.62    778
57.64    852
57.66    934
57.68    1051
57.7     999
57.72    1000
57.74    1026
57.76    1041
57.78    1096
57.8     1116
57.82    1130
57.84    1182
57.86    1402
57.88    1574
57.9     1654
57.92    1797
57.94    1957
57.96    2171
57.98    2484
58.0     2718
58.02    2954
58.04    3338
58.06    3834
58.08    4290
58.1     4804
58.12    5367
58.14    6024
58.16    6777
58.18    7629
58.2     8389
58.22    9184
58.24    9986
58.26    10576
58.28    10908
58.3     10994
58.32    10787
58.34    10321
58.36    9660
58.38    8821
58.4     7903
58.42    7020
58.44    6167
58.46    5349
58.48    4642
58.5     4047
58.52    3568
58.54    3178
58.56    2878
58.58    2648
58.6     2489
58.62    2356
58.64    2193
58.66    2027
58.68    1899
58.7     1704
58.72    1494
58.74    1307
58.76    1102
58.78    968
58.8     896
58.82    850
58.84    868
58.86    877
58.88    973
58.9     1008
58.92    1053
58.94    1073
58.96    988
58.98    888
59.0     807
59.02    711
59.04    677
59.06    596
59.08    571
59.1     534
59.12    566
59.14    613
59.16    628
59.18    610
59.2     546
59.22    614
59.24    633
59.26    682
59.28    677
59.3     565
59.32    546
59.34    499
59.36    498
59.38    437
59.4     336
59.42    371
59.44    397
59.46    503
59.48    562
59.5     537
59.52    526
59.54    510
59.56    537
59.58    535
59.6     462
59.62    419
59.64    394
59.66    422
59.68    476
59.7     494
59.72    468
59.74    507
59.76    563
59.78    632
59.8     622
59.82    533
59.84    487
59.86    443
59.88    415
59.9     373
59.92    342
59.94    403
59.96    493
59.98    567
60.0     588
60.02    523
60.04    563
60.06    546
60.08    590
60.1     545
60.12    481
60.14    461
60.16    414
60.18    415
60.2     416
60.22    337
60.24    326
60.26    360
60.28    467
60.3     494
60.32    564
60.34    566
60.36    567
60.38    629
60.4     619
60.42    529
60.44    403
60.46    346
60.48    308
60.5     315
60.52    363
60.54    322
60.56    392
60.58    450
60.6     494
60.62    499
60.64    489
60.66    491
60.68    461
60.7     486
60.72    486
60.74    469
60.76    486
60.78    447
60.8     369
60.82    350
60.84    403
60.86    422
60.88    448
60.9     520
60.92    567
60.94    559
60.96    575
60.98    553
61.0     508
61.02    568
61.04    520
61.06    521
61.08    501
61.1     487
61.12    514
61.14    497
61.16    535
61.18    512
61.2     522
61.22    571
61.24    515
61.26    545
61.28    490
61.3     500
61.32    523
61.34    557
61.36    585
61.38    623
61.4     653
61.42    691
61.44    681
61.46    705
61.48    619
61.5     618
61.52    554
61.54    557
61.56    625
61.58    732
61.6     787
61.62    831
61.64    882
61.66    904
61.68    808
61.7     854
61.72    794
61.74    763
61.76    822
61.78    939
61.8     1036
61.82    1228
61.84    1430
61.86    1643
61.88    1855
61.9     2115
61.92    2374
61.94    2686
61.96    3128
61.98    3688
62.0     4239
62.02    4993
62.04    5754
62.06    6585
62.08    7486
62.1     8329
62.12    9151
62.14    9731
62.16    10138
62.18    10301
62.2     10183
62.22    10016
62.24    9696
62.26    9271
62.28    8865
62.3     8363
62.32    7929
62.34    7375
62.36    6851
62.38    6357
62.4     5827
62.42    5378
62.44    4965
62.46    4548
62.48    4131
62.5     3682
62.52    3284
62.54    2877
62.56    2541
62.58    2229
62.6     1883
62.62    1596
62.64    1387
62.66    1209
62.68    1091
62.7     1036
62.72    940
62.74    933
62.76    954
62.78    943
62.8     929
62.82    995
62.84    991
62.86    889
62.88    870
62.9     843
62.92    723
62.94    640
62.96    614
62.98    566
63.0     551
63.02    611
63.04    641
63.06    567
63.08    597
63.1     559
63.12    466
63.14    389
63.16    375
63.18    389
63.2     411
63.22    407
63.24    496
63.26    524
63.28    597
63.3     650
63.32    661
63.34    652
63.36    581
63.38    533
63.4     515
63.42    404
63.44    380
63.46    332
63.48    322
63.5     347
63.52    374
63.54    449
63.56    445
63.58    442
63.6     446
63.62    375
63.64    442
63.66    474
63.68    505
63.7     498
63.72    533
63.74    598
63.76    567
63.78    555
63.8     521
63.82    409
63.84    394
63.86    353
63.88    348
63.9     297
63.92    295
63.94    266
63.96    285
63.98    356
64.0     453
64.02    423
64.04    509
64.06    591
64.08    603
64.1     599
64.12    617
64.14    583
64.16    537
64.18    407
64.2     410
64.22    329
64.24    319
64.26    317
64.28    368
64.3     392
64.32    466
64.34    591
64.36    624
64.38    572
64.4     631
64.42    624
64.44    641
64.46    675
64.48    779
64.5     783
64.52    822
64.54    935
64.56    1008
64.58    1034
64.6     1147
64.62    1244
64.64    1388
64.66    1501
64.68    1677
64.7     1789
64.72    1913
64.74    2105
64.76    2267
64.78    2390
64.8     2613
64.82    2755
64.84    2919
64.86    2982
64.88    2996
64.9     2962
64.92    2933
64.94    2853
64.96    2769
64.98    2571
65.0     2453
65.02    2292
65.04    2162
65.06    1993
65.08    1807
65.1     1649
65.12    1499
65.14    1375
65.16    1332
65.18    1177
65.2     1089
65.22    993
65.24    906
65.26    851
65.28    808
65.3     777
65.32    729
65.34    700
65.36    686
65.38    628
65.4     573
65.42    478
65.44    408
65.46    426
65.48    438
65.5     458
65.52    492
65.54    537
65.56    537
65.58    554
65.6     548
65.62    570
65.64    540
65.66    483
65.68    395
65.7     348
65.72    393
65.74    427
65.76    467
65.78    497
65.8     481
65.82    534
65.84    522
65.86    494
65.88    467
65.9     395
65.92    361
65.94    347
65.96    344
65.98    333
66.0     316
66.02    354
66.04    343
66.06    411
66.08    391
66.1     395
66.12    401
66.14    485
66.16    487
66.18    500
66.2     490
66.22    488
66.24    471
66.26    467
66.28    409
66.3     336
66.32    289
66.34    283
66.36    264
66.38    271
66.4     326
66.42    382
66.44    470
66.46    473
66.48    561
66.5     506
66.52    492
66.54    398
66.56    338
66.58    214
66.6     228
66.62    181
66.64    227
66.66    253
66.68    375
66.7     445
66.72    506
66.74    525
66.76    593
66.78    574
66.8     600
66.82    592
66.84    593
66.86    482
66.88    403
66.9     327
66.92    263
66.94    223
66.96    200
66.98    247
67.0     297
67.02    417
67.04    492
67.06    573
67.08    633
67.1     644
67.12    628
67.14    619
67.16    559
67.18    552
67.2     455
67.22    382
67.24    309
67.26    275
67.28    262
67.3     251
67.32    287
67.34    330
67.36    339
67.38    406
67.4     430
67.42    473
67.44    488
67.46    508
67.48    503
67.5     472
67.52    457
67.54    485
67.56    492
67.58    507
67.6     503
67.62    469
67.64    424
67.66    406
67.68    393
67.7     389
67.72    372
67.74    398
67.76    351
67.78    291
67.8     310
67.82    334
67.84    384
67.86    427
67.88    495
67.9     495
67.92    500
67.94    485
67.96    438
67.98    375
68.0     350
68.02    321
68.04    331
68.06    330
68.08    339
68.1     366
68.12    426
68.14    461
68.16    478
68.18    506
68.2     526
68.22    502
68.24    542
68.26    530
68.28    489
68.3     463
68.32    454
68.34    446
68.36    460
68.38    519
68.4     602
68.42    602
68.44    571
68.46    592
68.48    600
68.5     622
68.52    646
68.54    670
68.56    691
68.58    732
68.6     803
68.62    778
68.64    802
68.66    865
68.68    926
68.7     1018
68.72    1156
68.74    1345
68.76    1470
68.78    1628
68.8     1789
68.82    1891
68.84    2012
68.86    2146
68.88    2280
68.9     2469
68.92    2613
68.94    2605
68.96    2616
68.98    2625
69.0     2557
69.02    2469
69.04    2368
69.06    2275
69.08    2194
69.1     2071
69.12    1877
69.14    1720
69.16    1669
69.18    1522
69.2     1351
69.22    1253
69.24    1139
69.26    1038
69.28    963
69.3     891
69.32    858
69.34    852
69.36    811
69.38    790
69.4     734
69.42    753
69.44    679
69.46    642
69.48    637
69.5     635
69.52    534
69.54    499
69.56    510
69.58    510
69.6     478
69.62    497
69.64    477
69.66    490
69.68    507
69.7     484
69.72    485
69.74    507
69.76    473
69.78    463
69.8     513
69.82    530
69.84    535
69.86    519
69.88    495
69.9     501
69.92    458
69.94    439
69.96    457
69.98    518
70.0     545
70.02    573
70.04    570
70.06    584
70.08    592
70.1     601
70.12    594
70.14    575
70.16    588
70.18    517
70.2     482
70.22    502
70.24    550
70.26    637
70.28    742
70.3     848
70.32    952
70.34    985
70.36    1013
70.38    992
70.4     1031
70.42    1072
70.44    1113
70.46    1151
70.48    1187
70.5     1213
70.52    1253
70.54    1286
70.56    1267
70.58    1309
70.6     1276
70.62    1268
70.64    1295
70.66    1309
70.68    1294
70.7     1231
70.72    1199
70.74    1170
70.76    1127
70.78    1060
70.8     929
70.82    872
70.84    784
70.86    683
70.88    617
70.9     518
70.92    516
70.94    489
70.96    461
70.98    469
71.0     525
71.02    525
71.04    522
71.06    558
71.08    594
71.1     627
71.12    693
71.14    642
71.16    577
71.18    587
71.2     520
71.22    456
71.24    394
71.26    280
71.28    263
71.3     292
71.32    348
71.34    362
71.36    357
71.38    361
71.4     362
71.42    408
71.44    442
71.46    450
71.48    513
71.5     535
71.52    597
71.54    653
71.56    574
71.58    526
71.6     539
71.62    552
71.64    522
71.66    455
71.68    392
71.7     384
71.72    438
71.74    427
71.76    412
71.78    451
71.8     454
71.82    483
71.84    479
71.86    455
71.88    481
71.9     513
71.92    544
71.94    528
71.96    575
71.98    621
72.0     627
72.02    683
72.04    690
72.06    665
72.08    682
72.1     691
72.12    676
72.14    694
72.16    710
72.18    844
72.2     854
72.22    883
72.24    921
72.26    1000
72.28    1091
72.3     1235
72.32    1374
72.34    1524
72.36    1715
72.38    1901
72.4     1966
72.42    2166
72.44    2334
72.46    2531
72.48    2701
72.5     2894
72.52    3031
72.54    3150
72.56    3305
72.58    3339
72.6     3353
72.62    3338
72.64    3253
72.66    3158
72.68    2994
72.7     2839
72.72    2652
72.74    2492
72.76    2308
72.78    2097
72.8     1915
72.82    1740
72.84    1615
72.86    1408
72.88    1273
72.9     1173
72.92    1139
72.94    1051
72.96    969
72.98    962
73.0     953
73.02    961
73.04    904
73.06    771
73.08    714
73.1     639
73.12    684
73.14    595
73.16    575
73.18    614
73.2     628
73.22    658
73.24    668
73.26    712
73.28    780
73.3     863
73.32    933
73.34    837
73.36    852
73.38    833
73.4     803
73.42    818
73.44    773
73.46    793
73.48    744
73.5     748
73.52    750
73.54    752
73.56    844
73.58    897
73.6     957
73.62    1007
73.64    961
73.66    987
73.68    890
73.7     897
73.72    871
73.74    877
73.76    798
73.78    745
73.8     673
73.82    579
73.84    480
73.86    488
73.88    459
73.9     553
73.92    615
73.94    651
73.96    663
73.98    734
74.0     762
74.02    767
74.04    802
74.06    884
74.08    926
74.1     998
74.12    1008
74.14    986
74.16    1081
74.18    1144
74.2     1230
74.22    1298
74.24    1412
74.26    1487
74.28    1537
74.3     1549
74.32    1598
74.34    1605
74.36    1656
74.38    1614
74.4     1617
74.42    1576
74.44    1542
74.46    1509
74.48    1497
74.5     1496
74.52    1572
74.54    1538
74.56    1570
74.58    1524
74.6     1549
74.62    1494
74.64    1471
74.66    1501
74.68    1518
74.7     1517
74.72    1530
74.74    1460
74.76    1470
74.78    1503
74.8     1616
74.82    1653
74.84    1745
74.86    1837
74.88    1769
74.9     1652
74.92    1517
74.94    1346
74.96    1225
74.98    1203
75.0     1191
75.02    1157
75.04    1150
75.06    1105
75.08    979
75.1     945
75.12    950
75.14    933
75.16    890
75.18    860
75.2     746
75.22    663
75.24    563
75.26    456
75.28    434
75.3     462
75.32    534
75.34    559
75.36    534
75.38    567
75.4     544
75.42    580
75.44    593
75.46    612
75.48    684
75.5     699
75.52    688
75.54    611
75.56    529
75.58    523
75.6     417
75.62    396
75.64    364
75.66    406
75.68    478
75.7     499
75.72    469
75.74    462
75.76    430
75.78    414
75.8     255
75.82    251
75.84    275
75.86    394
75.88    448
75.9     448
75.92    485
75.94    473
75.96    443
75.98    446
76.0     357
76.02    428
76.04    454
76.06    452
76.08    405
76.1     412
76.12    432
76.14    399
76.16    429
76.18    443
76.2     461
76.22    491
76.24    469
76.26    399
76.28    358
76.3     349
76.32    263
76.34    216
76.36    213
76.38    220
76.4     236
76.42    274
76.44    345
76.46    339
76.48    354
76.5     335
76.52    302
76.54    302
76.56    329
76.58    391
76.6     383
76.62    493
76.64    593
76.66    636
76.68    700
76.7     667
76.72    640
76.74    641
76.76    554
76.78    558
76.8     508
76.82    541
76.84    522
76.86    435
76.88    377
76.9     342
76.92    383
76.94    420
76.96    418
76.98    513
77.0     582
77.02    636
77.04    612
77.06    569
77.08    597
77.1     692
77.12    761
77.14    761
77.16    818
77.18    820
77.2     859
77.22    845
77.24    866
77.26    919
77.28    1010
77.3     1151
77.32    1256
77.34    1367
77.36    1519
77.38    1621
77.4     1786
77.42    1932
77.44    2115
77.46    2313
77.48    2507
77.5     2729
77.52    2885
77.54    3066
77.56    3241
77.58    3298
77.6     3364
77.62    3364
77.64    3320
77.66    3286
77.68    3226
77.7     3143
77.72    3060
77.74    2987
77.76    2937
77.78    2753
77.8     2574
77.82    2430
77.84    2325
77.86    2172
77.88    2097
77.9     1962
77.92    1850
77.94    1719
77.96    1564
77.98    1331
78.0     1143
78.02    1134
78.04    1066
78.06    964
78.08    978
78.1     947
78.12    871
78.14    856
78.16    780
78.18    740
78.2     770
78.22    871
78.24    887
78.26    861
78.28    847
78.3     786
78.32    647
78.34    583
78.36    454
78.38    312
78.4     291
78.42    282
78.44    322
78.46    316
78.48    391
78.5     434
78.52    441
78.54    456
78.56    455
78.58    429
78.6     498
78.62    502
78.64    530
78.66    572
78.68    585
78.7     582
78.72    555
78.74    533
78.76    543
78.78    548
78.8     501
78.82    412
78.84    346
78.86    370
78.88    300
78.9     285
78.92    234
78.94    243
78.96    297
78.98    382
79.0     394
79.02    394
79.04    430
79.06    452
79.08    399
79.1     320
79.12    286
79.14    326
79.16    407
79.18    466
79.2     489
79.22    489
79.24    531
79.26    481
79.28    441
79.3     381
79.32    403
79.34    451
79.36    467
79.38    431
79.4     389
79.42    340
79.44    317
79.46    290
79.48    307
79.5     331
79.52    335
79.54    409
79.56    417
79.58    359
79.6     331
79.62    359
79.64    375
79.66    423
79.68    500
79.7     567
79.72    524
79.74    519
79.76    494
79.78    398
79.8     387
79.82    396
79.84    315
79.86    275
79.88    306
79.9     329
79.92    270
79.94    255
79.96    368
79.98    410
80.0     425
80.02    494
80.04    497
80.06    517
80.08    529
80.1     554
80.12    531
80.14    538
80.16    558
80.18    571
80.2     517
80.22    545
80.24    532
80.26    507
80.28    535
80.3     531
80.32    529
80.34    535
80.36    535
80.38    512
80.4     493
80.42    471
80.44    455
80.46    477
80.48    512
80.5     464
80.52    513
80.54    558
80.56    561
80.58    493
80.6     441
80.62    395
80.64    358
80.66    365
80.68    319
80.7     276
80.72    312
80.74    278
80.76    310
80.78    297
80.8     309
80.82    350
80.84    417
80.86    465
80.88    455
80.9     418
80.92    388
80.94    373
80.96    430
80.98    438
81.0     454
81.02    447
81.04    405
81.06    350
81.08    298
81.1     258
81.12    238
81.14    292
81.16    315
81.18    349
81.2     353
81.22    327
81.24    258
81.26    173
81.28    194
81.3     227
81.32    216
81.34    281
81.36    332
81.38    371
81.4     385
81.42    431
81.44    404
81.46    345
81.48    421
81.5     437
81.52    387
81.54    390
81.56    428
81.58    424
81.6     391
81.62    457
81.64    365
81.66    336
81.68    338
81.7     317
81.72    233
81.74    245
81.76    272
81.78    277
81.8     256
81.82    276
81.84    237
81.86    262
81.88    253
81.9     273
81.92    319
81.94    384
81.96    405
81.98    399
82.0     393
82.02    320
82.04    288
82.06    331
82.08    306
82.1     324
82.12    391
82.14    426
82.16    426
82.18    375
82.2     400
82.22    350
82.24    366
82.26    436
82.28    438
82.3     429
82.32    448
82.34    454
82.36    401
82.38    360
82.4     368
82.42    335
82.44    322
82.46    339
82.48    323
82.5     299
82.52    291
82.54    283
82.56    257
82.58    254
82.6     216
82.62    249
82.64    256
82.66    253
82.68    294
82.7     319
82.72    369
82.74    372
82.76    413
82.78    431
82.8     414
82.82    408
82.84    373
82.86    304
82.88    251
82.9     230
82.92    244
82.94    269
82.96    368
82.98    397
83.0     369
83.02    355
83.04    327
83.06    295
83.08    281
83.1     334
83.12    385
83.14    443
83.16    447
83.18    395
83.2     341
83.22    328
83.24    323
83.26    424
83.28    500
83.3     510
83.32    450
83.34    412
83.36    359
83.38    242
83.4     183
83.42    173
83.44    193
83.46    288
83.48    331
83.5     348
83.52    276
83.54    293
83.56    352
83.58    342
83.6     390
83.62    381
83.64    391
83.66    444
83.68    398
83.7     358
83.72    273
83.74    253
83.76    281
83.78    313
83.8     295
83.82    203
83.84    167
83.86    162
83.88    79
83.9     126
83.92    151
83.94    239
83.96    338
83.98    386
84.0     408
84.02    383
84.04    306
84.06    348
84.08    361
84.1     408
84.12    379
84.14    400
84.16    369
84.18    313
84.2     275
84.22    219
84.24    160
84.26    252
84.28    343
84.3     444
84.32    444
84.34    434
84.36    385
84.38    375
84.4     297
84.42    288
84.44    291
84.46    325
84.48    362
84.5     463
84.52    433
84.54    385
84.56    337
84.58    328
84.6     279
84.62    308
84.64    307
84.66    391
84.68    442
84.7     523
84.72    469
84.74    420
84.76    291
84.78    278
84.8     284
84.82    355
84.84    363
84.86    493
84.88    507
84.9     506
84.92    459
84.94    402
84.96    366
84.98    416
85.0     463
85.02    572
85.04    502
85.06    480
85.08    392
85.1     350
85.12    292
85.14    255
85.16    239
85.18    200
85.2     235
85.22    282
85.24    277
85.26    235
85.28    228
85.3     317
85.32    399
85.34    478
85.36    432
85.38    440
85.4     504
85.42    538
85.44    497
85.46    428
85.48    386
85.5     352
85.52    385
85.54    426
85.56    360
85.58    346
85.6     348
85.62    368
85.64    280
85.66    306
85.68    219
85.7     241
85.72    324
85.74    397
85.76    381
85.78    409
85.8     381
85.82    407
85.84    390
85.86    394
85.88    354
85.9     382
85.92    376
85.94    382
85.96    382
85.98    407
86.0     350
86.02    385
86.04    408
86.06    452
86.08    486
86.1     459
86.12    418
86.14    437
86.16    431
86.18    443
86.2     384
86.22    419
86.24    491
86.26    554
86.28    633
86.3     639
86.32    636
86.34    673
86.36    688
86.38    738
86.4     761
86.42    738
86.44    806
86.46    858
86.48    919
86.5     886
86.52    861
86.54    771
86.56    730
86.58    787
86.6     846
86.62    875
86.64    947
86.66    980
86.68    968
86.7     922
86.72    814
86.74    636
86.76    518
86.78    494
86.8     504
86.82    581
86.84    587
86.86    583
86.88    572
86.9     544
86.92    498
86.94    471
86.96    443
86.98    444
87.0     441
87.02    511
87.04    543
87.06    482
87.08    415
87.1     347
87.12    350
87.14    351
87.16    348
87.18    368
87.2     373
87.22    416
87.24    391
87.26    355
87.28    334
87.3     276
87.32    270
87.34    258
87.36    270
87.38    330
87.4     374
87.42    360
87.44    430
87.46    448
87.48    441
87.5     447
87.52    485
87.54    499
87.56    493
87.58    532
87.6     520
87.62    461
87.64    495
87.66    397
87.68    353
87.7     344
87.72    339
87.74    330
87.76    325
87.78    289
87.8     225
87.82    214
87.84    278
87.86    290
87.88    306
87.9     316
87.92    286
87.94    317
87.96    325
87.98    333
88.0     336
88.02    370
88.04    420
88.06    394
88.08    368
88.1     348
88.12    329
88.14    342
88.16    363
88.18    409
88.2     450
88.22    460
88.24    449
88.26    360
88.28    300
88.3     309
88.32    319
88.34    288
88.36    328
88.38    326
88.4     379
88.42    400
88.44    314
88.46    265
88.48    246
88.5     290
88.52    345
88.54    357
88.56    459
88.58    457
88.6     485
88.62    538
88.64    509
88.66    506
88.68    438
88.7     379
88.72    377
88.74    331
88.76    292
88.78    213
88.8     165
88.82    198
88.84    242
88.86    226
88.88    250
88.9     267
88.92    305
88.94    331
88.96    288
88.98    298
89.0     285
89.02    275
89.04    327
89.06    337
89.08    456
89.1     392
89.12    344
89.14    356
89.16    298
89.18    314
89.2     286
89.22    206
89.24    222
89.26    237
89.28    257
89.3     233
89.32    277
89.34    299
89.36    227
89.38    274
89.4     318
89.42    321
89.44    372
89.46    356
89.48    361
89.5     468
89.52    515
89.54    490
89.56    492
89.58    546
89.6     526
89.62    477
89.64    441
89.66    383
89.68    368
89.7     346
89.72    380
89.74    396
89.76    480
89.78    507
89.8     412
89.82    345
89.84    288
89.86    269
89.88    262
89.9     317
89.92    384
89.94    562
89.96    607
89.98    617
90.0     607
