?
5.0      746
5.02     746
5.04     966
5.06     911
5.08     943
5.1      884
5.12     924
5.14     907
5.16     875
5.18     871
5.2      887
5.22     941
5.24     975
5.26     969
5.28     933
5.3      954
5.32     966
5.34     940
5.36     908
5.38     920
5.4      933
5.42     969
5.44     964
5.46     944
5.48     970
5.5      980
5.52     972
5.54     1018
5.56     1018
5.58     1018
5.6      1001
5.62     1006
5.64     981
5.66     962
5.68     964
5.7      944
5.72     966
5.74     997
5.76     952
5.78     986
5.8      934
5.82     965
5.84     923
5.86     901
5.88     924
5.9      933
5.92     970
5.94     1009
5.96     1016
5.98     1080
6.0      1022
6.02     1063
6.04     1056
6.06     1055
6.08     1076
6.1      1049
6.12     1045
6.14     1064
6.16     1031
6.18     1039
6.2      1010
6.22     1043
6.24     1041
6.26     1038
6.28     1031
6.3      1005
6.32     986
6.34     987
6.36     993
6.38     983
6.4      994
6.42     1002
6.44     999
6.46     1007
6.48     984
6.5      1009
6.52     983
6.54     1030
6.56     1025
6.58     1035
6.6      1061
6.62     1039
6.64     1061
6.66     1008
6.68     1019
6.7      1028
6.72     983
6.74     1010
6.76     962
6.78     1041
6.8      1018
6.82     1049
6.84     1084
6.86     1087
6.88     1135
6.9      1112
6.92     1095
6.94     1069
6.96     993
6.98     1021
7.0      1002
7.02     1025
7.04     1005
7.06     985
7.08     1030
7.1      1022
7.12     1031
7.14     1034
7.16     1018
7.18     1085
7.2      1115
7.22     1098
7.24     1085
7.26     1061
7.28     1078
7.3      1046
7.32     1051
7.34     1030
7.36     1021
7.38     1052
7.4      1022
7.42     1039
7.44     1007
7.46     994
7.48     981
7.5      1012
7.52     1032
7.54     998
7.56     1032
7.58     1056
7.6      1042
7.62     1054
7.64     1017
7.66     1085
7.68     1065
7.7      1100
7.72     1106
7.74     1095
7.76     1093
7.78     1082
7.8      1040
7.82     982
7.84     980
7.86     1017
7.88     999
7.9      988
7.92     1009
7.94     1022
7.96     1070
7.98     1077
8.0      1054
8.02     1055
8.04     1075
8.06     1073
8.08     1073
8.1      1043
8.12     1033
8.14     1074
8.16     1080
8.18     1061
8.2      1036
8.22     1058
8.24     1103
8.26     1098
8.28     1094
8.3      1124
8.32     1084
8.34     1124
8.36     1102
8.38     1118
8.4      1051
8.42     1097
8.44     1156
8.46     1112
8.48     1107
8.5      1132
8.52     1098
8.54     1133
8.56     1145
8.58     1099
8.6      1058
8.62     1090
8.64     1086
8.66     1003
8.68     966
8.7      956
8.72     931
8.74     938
8.76     932
8.78     945
8.8      969
8.82     1016
8.84     1044
8.86     1034
8.88     1050
8.9      1086
8.92     1119
8.94     1127
8.96     1082
8.98     1115
9.0      1044
9.02     1028
9.04     967
9.06     966
9.08     977
9.1      991
9.12     1008
9.14     1004
9.16     995
9.18     1033
9.2      967
9.22     976
9.24     981
9.26     974
9.28     950
9.3      953
9.32     942
9.34     949
9.36     1000
9.38     966
9.4      939
9.42     1004
9.44     1016
9.46     941
9.48     973
9.5      936
9.52     960
9.54     930
9.56     943
9.58     923
9.6      897
9.62     952
9.64     937
9.66     934
9.68     997
9.7      949
9.72     985
9.74     975
9.76     981
9.78     998
9.8      974
9.82     993
9.84     947
9.86     922
9.88     942
9.9      904
9.92     909
9.94     916
9.96     904
9.98     876
10.0     897
10.02    843
10.04    825
10.06    856
10.08    892
10.1     936
10.12    989
10.14    970
10.16    919
10.18    877
10.2     918
10.22    879
10.24    877
10.26    924
10.28    916
10.3     908
10.32    978
10.34    921
10.36    889
10.38    851
10.4     884
10.42    854
10.44    839
10.46    862
10.48    892
10.5     853
10.52    899
10.54    864
10.56    901
10.58    870
10.6     895
10.62    863
10.64    903
10.66    887
10.68    936
10.7     906
10.72    849
10.74    896
10.76    913
10.78    871
10.8     887
10.82    881
10.84    910
10.86    908
10.88    931
10.9     904
10.92    858
10.94    884
10.96    866
10.98    885
11.0     913
11.02    875
11.04    909
11.06    932
11.08    945
11.1     893
11.12    908
11.14    894
11.16    898
11.18    926
11.2     900
11.22    883
11.24    964
11.26    995
11.28    1020
11.3     988
11.32    969
11.34    933
11.36    926
11.38    929
11.4     929
11.42    916
11.44    943
11.46    951
11.48    946
11.5     929
11.52    871
11.54    869
11.56    956
11.58    930
11.6     939
11.62    960
11.64    988
11.66    990
11.68    969
11.7     947
11.72    924
11.74    951
11.76    1006
11.78    935
11.8     992
11.82    1028
11.84    1047
11.86    1054
11.88    999
11.9     974
11.92    998
11.94    950
11.96    937
11.98    935
12.0     994
12.02    1006
12.04    1054
12.06    1076
12.08    1066
12.1     1078
12.12    1083
12.14    1006
12.16    1015
12.18    992
12.2     963
12.22    959
12.24    958
12.26    970
12.28    1008
12.3     1005
12.32    982
12.34    1009
12.36    1045
12.38    958
12.4     981
12.42    1002
12.44    986
12.46    983
12.48    907
12.5     938
12.52    921
12.54    965
12.56    994
12.58    954
12.6     1040
12.62    1063
12.64    1037
12.66    1028
12.68    1008
12.7     1082
12.72    1033
12.74    1000
12.76    1035
12.78    991
12.8     991
12.82    958
12.84    898
12.86    915
12.88    949
12.9     977
12.92    967
12.94    962
12.96    1021
12.98    995
13.0     1021
13.02    1043
13.04    1127
13.06    1200
13.08    1221
13.1     1205
13.12    1172
13.14    1162
13.16    1101
13.18    1070
13.2     1081
13.22    1126
13.24    1159
13.26    1115
13.28    1104
13.3     1087
13.32    1079
13.34    1083
13.36    1105
13.38    1189
13.4     1185
13.42    1201
13.44    1144
13.46    1119
13.48    1093
13.5     1092
13.52    1087
13.54    1073
13.56    1142
13.58    1156
13.6     1124
13.62    1110
13.64    1106
13.66    1155
13.68    1194
13.7     1238
13.72    1293
13.74    1260
13.76    1263
13.78    1248
13.8     1233
13.82    1207
13.84    1206
13.86    1205
13.88    1204
13.9     1165
13.92    1213
13.94    1188
13.96    1167
13.98    1203
14.0     1232
14.02    1197
14.04    1183
14.06    1177
14.08    1161
14.1     1149
14.12    1192
14.14    1226
14.16    1243
14.18    1262
14.2     1256
14.22    1184
14.24    1201
14.26    1192
14.28    1177
14.3     1164
14.32    1174
14.34    1194
14.36    1209
14.38    1216
14.4     1228
14.42    1255
14.44    1295
14.46    1296
14.48    1287
14.5     1271
14.52    1165
14.54    1164
14.56    1202
14.58    1204
14.6     1243
14.62    1306
14.64    1326
14.66    1327
14.68    1319
14.7     1285
14.72    1228
14.74    1336
14.76    1409
14.78    1426
14.8     1431
14.82    1402
14.84    1429
14.86    1489
14.88    1518
14.9     1423
14.92    1385
14.94    1491
14.96    1500
14.98    1388
15.0     1251
15.02    1280
15.04    1346
15.06    1345
15.08    1343
15.1     1336
15.12    1333
15.14    1321
15.16    1273
15.18    1167
15.2     1113
15.22    1200
15.24    1232
15.26    1220
15.28    1257
15.3     1335
15.32    1359
15.34    1322
15.36    1358
15.38    1368
15.4     1333
15.42    1357
15.44    1421
15.46    1436
15.48    1403
15.5     1362
15.52    1328
15.54    1292
15.56    1293
15.58    1281
15.6     1322
15.62    1368
15.64    1504
15.66    1572
15.68    1576
15.7     1486
15.72    1443
15.74    1447
15.76    1471
15.78    1476
15.8     1600
15.82    1599
15.84    1664
15.86    1719
15.88    1761
15.9     1778
15.92    1790
15.94    1818
15.96    1939
15.98    2066
16.0     2162
16.02    2143
16.04    2232
16.06    2367
16.08    2489
16.1     2566
16.12    2663
16.14    2920
16.16    3316
16.18    3668
16.2     4007
16.22    4376
16.24    4904
16.26    5497
16.28    6186
16.3     6990
16.32    8078
16.34    9531
16.36    11195
16.38    13138
16.4     15557
16.42    18492
16.44    22054
16.46    26083
16.48    30575
16.5     34948
16.52    38600
16.54    40922
16.56    41454
16.58    39993
16.6     36589
16.62    31820
16.64    26325
16.66    20855
16.68    16161
16.7     12321
16.72    9365
16.74    7284
16.76    5986
16.78    5020
16.8     4285
16.82    3815
16.84    3411
16.86    3112
16.88    2863
16.9     2648
16.92    2393
16.94    2191
16.96    2077
16.98    1985
17.0     1884
17.02    1826
17.04    1725
17.06    1622
17.08    1601
17.1     1597
17.12    1586
17.14    1496
17.16    1512
17.18    1543
17.2     1510
17.22    1421
17.24    1298
17.26    1256
17.28    1302
17.3     1338
17.32    1332
17.34    1211
17.36    1221
17.38    1252
17.4     1264
17.42    1191
17.44    1168
17.46    1170
17.48    1142
17.5     1131
17.52    1101
17.54    1025
17.56    1066
17.58    1085
17.6     1054
17.62    1047
17.64    1016
17.66    977
17.68    954
17.7     879
17.72    894
17.74    974
17.76    1050
17.78    1014
17.8     983
17.82    1022
17.84    961
17.86    950
17.88    927
17.9     877
17.92    913
17.94    957
17.96    955
17.98    902
18.0     876
18.02    858
18.04    786
18.06    794
18.08    771
18.1     761
18.12    798
18.14    827
18.16    848
18.18    844
18.2     886
18.22    902
18.24    923
18.26    886
18.28    824
18.3     823
18.32    830
18.34    765
18.36    700
18.38    721
18.4     797
18.42    817
18.44    828
18.46    774
18.48    742
18.5     768
18.52    760
18.54    731
18.56    694
18.58    709
18.6     672
18.62    652
18.64    674
18.66    676
18.68    644
18.7     616
18.72    643
18.74    641
18.76    621
18.78    619
18.8     611
18.82    633
18.84    639
18.86    687
18.88    688
18.9     711
18.92    720
18.94    714
18.96    696
18.98    678
19.0     663
19.02    605
19.04    574
19.06    577
19.08    578
19.1     609
19.12    540
19.14    564
19.16    564
19.18    602
19.2     646
19.22    658
19.24    611
19.26    575
19.28    590
19.3     577
19.32    538
19.34    530
19.36    554
19.38    552
19.4     570
19.42    578
19.44    502
19.46    506
19.48    505
19.5     523
19.52    508
19.54    443
19.56    385
19.58    363
19.6     437
19.62    478
19.64    473
19.66    495
19.68    489
19.7     532
19.72    487
19.74    434
19.76    423
19.78    447
19.8     484
19.82    508
19.84    527
19.86    492
19.88    462
19.9     430
19.92    446
19.94    453
19.96    522
19.98    532
20.0     547
20.02    535
20.04    520
20.06    533
20.08    520
20.1     430
20.12    385
20.14    365
20.16    412
20.18    423
20.2     409
20.22    401
20.24    420
20.26    481
20.28    479
20.3     414
20.32    403
20.34    436
20.36    484
20.38    498
20.4     530
20.42    543
20.44    536
20.46    578
20.48    566
20.5     506
20.52    469
20.54    397
20.56    337
20.58    305
20.6     369
20.62    436
20.64    436
20.66    499
20.68    502
20.7     462
20.72    401
20.74    406
20.76    367
20.78    449
20.8     476
20.82    447
20.84    352
20.86    406
20.88    395
20.9     450
20.92    442
20.94    479
20.96    447
20.98    461
21.0     430
21.02    400
21.04    407
21.06    424
21.08    415
21.1     457
21.12    442
21.14    405
21.16    417
21.18    477
21.2     571
21.22    539
21.24    471
21.26    412
21.28    436
21.3     381
21.32    341
21.34    261
21.36    349
21.38    445
21.4     513
21.42    436
21.44    396
21.46    482
21.48    518
21.5     476
21.52    364
21.54    271
21.56    286
21.58    313
21.6     317
21.62    343
21.64    412
21.66    471
21.68    480
21.7     510
21.72    472
21.74    414
21.76    399
21.78    422
21.8     414
21.82    465
21.84    456
21.86    362
21.88    368
21.9     366
21.92    371
21.94    373
21.96    423
21.98    438
22.0     411
22.02    429
22.04    371
22.06    273
22.08    300
22.1     282
22.12    299
22.14    356
22.16    371
22.18    349
22.2     320
22.22    370
22.24    327
22.26    319
22.28    308
22.3     332
22.32    409
22.34    417
22.36    352
22.38    330
22.4     356
22.42    401
22.44    345
22.46    318
22.48    280
22.5     344
22.52    375
22.54    315
22.56    307
22.58    308
22.6     320
22.62    343
22.64    317
22.66    323
22.68    288
22.7     265
22.72    221
22.74    237
22.76    276
22.78    256
22.8     255
22.82    323
22.84    364
22.86    430
22.88    376
22.9     352
22.92    332
22.94    315
22.96    270
22.98    245
23.0     228
23.02    195
23.04    177
23.06    171
23.08    126
23.1     137
23.12    164
23.14    177
23.16    173
23.18    246
23.2     252
23.22    237
23.24    221
23.26    231
23.28    253
23.3     330
23.32    385
23.34    436
23.36    465
23.38    492
23.4     450
23.42    388
23.44    291
23.46    244
23.48    268
23.5     236
23.52    220
23.54    228
23.56    282
23.58    249
23.6     248
23.62    226
23.64    231
23.66    274
23.68    318
23.7     265
23.72    300
23.74    287
23.76    322
23.78    261
23.8     297
23.82    253
23.84    283
23.86    258
23.88    247
23.9     262
23.92    271
23.94    219
23.96    232
23.98    218
24.0     272
24.02    234
24.04    287
24.06    260
24.08    323
24.1     321
24.12    256
24.14    187
24.16    221
24.18    226
24.2     275
24.22    262
24.24    254
24.26    218
24.28    206
24.3     138
24.32    68
24.34    79
24.36    94
24.38    163
24.4     187
24.42    250
24.44    214
24.46    235
24.48    248
24.5     299
24.52    313
24.54    335
24.56    334
24.58    388
24.6     404
24.62    453
24.64    326
24.66    285
24.68    223
24.7     258
24.72    286
24.74    361
24.76    400
24.78    370
24.8     350
24.82    321
24.84    284
24.86    281
24.88    283
24.9     243
24.92    251
24.94    310
24.96    298
24.98    233
25.0     210
25.02    219
25.04    243
25.06    288
25.08    312
25.1     226
25.12    198
25.14    237
25.16    304
25.18    314
25.2     337
25.22    277
25.24    235
25.26    243
25.28    240
25.3     210
25.32    146
25.34    185
25.36    251
25.38    274
25.4     306
25.42    229
25.44    215
25.46    247
25.48    235
25.5     255
25.52    155
25.54    137
25.56    163
25.58    213
25.6     250
25.62    196
25.64    179
25.66    161
25.68    203
25.7     285
25.72    244
25.74    259
25.76    269
25.78    268
25.8     285
25.82    261
25.84    231
25.86    154
25.88    198
25.9     182
25.92    171
25.94    189
25.96    202
25.98    236
26.0     237
26.02    232
26.04    271
26.06    222
26.08    214
26.1     174
26.12    207
26.14    233
26.16    244
26.18    209
26.2     160
26.22    174
26.24    194
26.26    207
26.28    203
26.3     212
26.32    210
26.34    203
26.36    201
26.38    213
26.4     217
26.42    225
26.44    150
26.46    148
26.48    153
26.5     229
26.52    225
26.54    245
26.56    241
26.58    250
26.6     143
26.62    106
26.64    88
26.66    138
26.68    264
26.7     333
26.72    303
26.74    227
26.76    203
26.78    181
26.8     121
26.82    150
26.84    222
26.86    208
26.88    241
26.9     184
26.92    162
26.94    89
26.96    109
26.98    165
27.0     265
27.02    333
27.04    333
27.06    230
27.08    183
27.1     170
27.12    187
27.14    178
27.16    227
27.18    262
27.2     317
27.22    345
27.24    260
27.26    164
27.28    105
27.3     84
27.32    122
27.34    161
27.36    215
27.38    210
27.4     200
27.42    252
27.44    243
27.46    281
27.48    290
27.5     280
27.52    345
27.54    349
27.56    364
27.58    316
27.6     207
27.62    148
27.64    133
27.66    180
27.68    205
27.7     260
27.72    282
27.74    274
27.76    304
27.78    214
27.8     154
27.82    81
27.84    131
27.86    192
27.88    212
27.9     270
27.92    247
27.94    251
27.96    258
27.98    179
28.0     125
28.02    88
28.04    94
28.06    54
28.08    4
28.1     18
28.12    26
28.14    125
28.16    233
28.18    325
28.2     330
28.22    340
28.24    349
28.26    273
28.28    280
28.3     261
28.32    276
28.34    354
28.36    349
28.38    331
28.4     279
28.42    242
28.44    228
28.46    123
28.48    127
28.5     80
28.52    152
28.54    190
28.56    189
28.58    197
28.6     230
28.62    242
28.64    242
28.66    211
28.68    202
28.7     212
28.72    266
28.74    292
28.76    302
28.78    246
28.8     254
28.82    198
28.84    154
28.86    184
28.88    178
28.9     246
28.92    252
28.94    268
28.96    234
28.98    184
29.0     211
29.02    198
29.04    217
29.06    267
29.08    244
29.1     250
29.12    196
29.14    166
29.16    127
29.18    187
29.2     216
29.22    273
29.24    317
29.26    290
29.28    230
29.3     209
29.32    216
29.34    185
29.36    181
29.38    205
29.4     140
29.42    156
29.44    228
29.46    269
29.48    254
29.5     245
29.52    220
29.54    172
29.56    176
29.58    133
29.6     121
29.62    153
29.64    221
29.66    277
29.68    213
29.7     190
29.72    216
29.74    231
29.76    235
29.78    180
29.8     144
29.82    144
29.84    117
29.86    168
29.88    185
29.9     275
29.92    346
29.94    281
29.96    198
29.98    59
30.0     49
30.02    124
30.04    153
30.06    259
30.08    314
30.1     387
30.12    377
30.14    322
30.16    304
30.18    265
30.2     270
30.22    284
30.24    227
30.26    182
30.28    154
30.3     131
30.32    97
30.34    156
30.36    173
30.38    213
30.4     243
30.42    268
30.44    282
30.46    245
30.48    235
30.5     169
30.52    143
30.54    157
30.56    124
30.58    121
30.6     92
30.62    100
30.64    120
30.66    98
30.68    136
30.7     160
30.72    209
30.74    251
30.76    230
30.78    170
30.8     169
30.82    148
30.84    161
30.86    181
30.88    163
30.9     209
30.92    252
30.94    234
30.96    251
30.98    233
31.0     225
31.02    161
31.04    174
31.06    208
31.08    220
31.1     331
31.12    333
31.14    289
31.16    311
31.18    249
31.2     216
31.22    186
31.24    164
31.26    182
31.28    144
31.3     105
31.32    97
31.34    64
31.36    111
31.38    195
31.4     204
31.42    213
31.44    219
31.46    166
31.48    162
31.5     236
31.52    315
31.54    326
31.56    314
31.58    240
31.6     108
31.62    53
31.64    38
31.66    59
31.68    182
31.7     311
31.72    375
31.74    421
31.76    376
31.78    309
31.8     221
31.82    128
31.84    33
31.86    33
31.88    163
31.9     192
31.92    258
31.94    331
31.96    353
31.98    370
32.0     373
32.02    271
32.04    206
32.06    258
32.08    342
32.1     354
32.12    465
32.14    554
32.16    589
32.18    645
32.2     656
32.22    550
32.24    537
32.26    510
32.28    433
32.3     429
32.32    475
32.34    515
32.36    550
32.38    555
32.4     478
32.42    452
32.44    473
32.46    489
32.48    423
32.5     406
32.52    374
32.54    350
32.56    356
32.58    285
32.6     235
32.62    284
32.64    334
32.66    381
32.68    390
32.7     396
32.72    344
32.74    367
32.76    409
32.78    386
32.8     411
32.82    434
32.84    415
32.86    419
32.88    416
32.9     366
32.92    335
32.94    350
32.96    352
32.98    395
33.0     450
33.02    475
33.04    468
33.06    524
33.08    551
33.1     620
33.12    676
33.14    708
33.16    774
33.18    849
33.2     919
33.22    1029
33.24    1172
33.26    1348
33.28    1574
33.3     1898
33.32    2209
33.34    2534
33.36    2946
33.38    3343
33.4     3860
33.42    4498
33.44    5206
33.46    6019
33.48    6859
33.5     7554
33.52    8049
33.54    8214
33.56    8131
33.58    7629
33.6     6969
33.62    6118
33.64    5186
33.66    4386
33.68    3665
33.7     2999
33.72    2473
33.74    2060
33.76    1684
33.78    1355
33.8     1164
33.82    948
33.84    823
33.86    794
33.88    791
33.9     772
33.92    737
33.94    739
33.96    643
33.98    628
34.0     610
34.02    606
34.04    646
34.06    629
34.08    631
34.1     658
34.12    672
34.14    699
34.16    644
34.18    604
34.2     585
34.22    535
34.24    490
34.26    421
34.28    418
34.3     419
34.32    372
34.34    382
34.36    369
34.38    362
34.4     455
34.42    501
34.44    549
34.46    584
34.48    558
34.5     500
34.52    412
34.54    445
34.56    472
34.58    490
34.6     519
34.62    535
34.64    544
34.66    540
34.68    522
34.7     514
34.72    474
34.74    580
34.76    652
34.78    673
34.8     712
34.82    758
34.84    780
34.86    777
34.88    829
34.9     928
34.92    1026
34.94    1369
34.96    1683
34.98    2032
35.0     2600
35.02    3283
35.04    4107
35.06    5138
35.08    6268
35.1     7333
35.12    8111
35.14    8697
35.16    8789
35.18    8415
35.2     7791
35.22    6946
35.24    5935
35.26    5022
35.28    4139
35.3     3347
35.32    2714
35.34    2238
35.36    1882
35.38    1574
35.4     1347
35.42    1183
35.44    1006
35.46    834
35.48    740
35.5     645
35.52    622
35.54    601
35.56    667
35.58    642
35.6     667
35.62    736
35.64    713
35.66    639
35.68    669
35.7     574
35.72    601
35.74    599
35.76    641
35.78    545
35.8     557
35.82    557
35.84    504
35.86    464
35.88    528
35.9     523
35.92    615
35.94    668
35.96    702
35.98    686
36.0     737
36.02    722
36.04    712
36.06    743
36.08    835
36.1     860
36.12    961
36.14    1065
36.16    1170
36.18    1329
36.2     1492
36.22    1652
36.24    1875
36.26    2218
36.28    2567
36.3     3088
36.32    3827
36.34    4717
36.36    5861
36.38    7351
36.4     9152
36.42    11168
36.44    13206
36.46    15127
36.48    16562
36.5     17454
36.52    17535
36.54    16836
36.56    15501
36.58    13805
36.6     11833
36.62    9847
36.64    8011
36.66    6516
36.68    5272
36.7     4302
36.72    3537
36.74    2957
36.76    2571
36.78    2227
36.8     1897
36.82    1608
36.84    1389
36.86    1220
36.88    1119
36.9     1055
36.92    998
36.94    976
36.96    982
36.98    911
37.0     841
37.02    812
37.04    762
37.06    793
37.08    848
37.1     903
37.12    900
37.14    870
37.16    773
37.18    639
37.2     524
37.22    439
37.24    437
37.26    574
37.28    652
37.3     771
37.32    858
37.34    907
37.36    887
37.38    894
37.4     844
37.42    717
37.44    714
37.46    654
37.48    484
37.5     430
37.52    438
37.54    424
37.56    452
37.58    526
37.6     525
37.62    480
37.64    498
37.66    409
37.68    345
37.7     370
37.72    358
37.74    395
37.76    468
37.78    547
37.8     635
37.82    725
37.84    835
37.86    875
37.88    903
37.9     867
37.92    752
37.94    673
37.96    531
37.98    443
38.0     423
38.02    455
38.04    497
38.06    531
38.08    493
38.1     490
38.12    434
38.14    364
38.16    315
38.18    296
38.2     342
38.22    364
38.24    426
38.26    454
38.28    449
38.3     428
38.32    384
38.34    349
38.36    385
38.38    389
38.4     399
38.42    382
38.44    427
38.46    457
38.48    447
38.5     399
38.52    383
38.54    343
38.56    390
38.58    418
38.6     417
38.62    366
38.64    412
38.66    410
38.68    392
38.7     392
38.72    408
38.74    324
38.76    322
38.78    334
38.8     306
38.82    241
38.84    282
38.86    303
38.88    368
38.9     436
38.92    493
38.94    432
38.96    427
38.98    439
39.0     374
39.02    368
39.04    393
39.06    371
39.08    370
39.1     397
39.12    357
39.14    280
39.16    292
39.18    315
39.2     283
39.22    377
39.24    444
39.26    435
39.28    424
39.3     405
39.32    278
39.34    196
39.36    190
39.38    197
39.4     254
39.42    351
39.44    439
39.46    447
39.48    422
39.5     372
39.52    342
39.54    310
39.56    344
39.58    372
39.6     435
39.62    465
39.64    463
39.66    464
39.68    498
39.7     468
39.72    483
39.74    462
39.76    451
39.78    387
39.8     343
39.82    364
39.84    318
39.86    374
39.88    413
39.9     423
39.92    499
39.94    579
39.96    633
39.98    635
40.0     667
40.02    668
40.04    628
40.06    632
40.08    614
40.1     598
40.12    665
40.14    713
40.16    772
40.18    763
40.2     791
40.22    750
40.24    775
40.26    757
40.28    723
40.3     705
40.32    764
40.34    807
40.36    844
40.38    929
40.4     955
40.42    954
40.44    967
40.46    895
40.48    859
40.5     806
40.52    784
40.54    740
40.56    772
40.58    778
40.6     762
40.62    789
40.64    851
40.66    899
40.68    1006
40.7     1034
40.72    1086
40.74    1076
40.76    1051
40.78    968
40.8     970
40.82    1009
40.84    1048
40.86    1154
40.88    1319
40.9     1414
40.92    1535
40.94    1584
40.96    1572
40.98    1601
41.0     1620
41.02    1691
41.04    1750
41.06    1892
41.08    2030
41.1     2260
41.12    2550
41.14    2850
41.16    3097
41.18    3485
41.2     3844
41.22    4351
41.24    4916
41.26    5565
41.28    6288
41.3     7341
41.32    8619
41.34    10190
41.36    12148
41.38    14797
41.4     18013
41.42    22046
41.44    26942
41.46    32559
41.48    38844
41.5     45275
41.52    51219
41.54    55810
41.56    58595
41.58    58981
41.6     56960
41.62    52839
41.64    47351
41.66    40970
41.68    34654
41.7     28751
41.72    23635
41.74    19396
41.76    15993
41.78    13213
41.8     11030
41.82    9310
41.84    8019
41.86    6844
41.88    5947
41.9     5178
41.92    4545
41.94    4070
41.96    3602
41.98    3257
42.0     2942
42.02    2676
42.04    2507
42.06    2321
42.08    2156
42.1     2020
42.12    1873
42.14    1782
42.16    1726
42.18    1710
42.2     1690
42.22    1633
42.24    1612
42.26    1537
42.28    1421
42.3     1345
42.32    1229
42.34    1193
42.36    1226
42.38    1180
42.4     1096
42.42    1031
42.44    1013
42.46    933
42.48    850
42.5     885
42.52    907
42.54    980
42.56    1011
42.58    976
42.6     965
42.62    966
42.64    957
42.66    854
42.68    853
42.7     927
42.72    902
42.74    908
42.76    867
42.78    831
42.8     814
42.82    802
42.84    830
42.86    787
42.88    861
42.9     896
42.92    918
42.94    898
42.96    927
42.98    910
43.0     918
43.02    905
43.04    885
43.06    882
43.08    790
43.1     746
43.12    690
43.14    670
43.16    729
43.18    765
43.2     851
43.22    816
43.24    849
43.26    911
43.28    759
43.3     732
43.32    687
43.34    711
43.36    655
43.38    583
43.4     601
43.42    543
43.44    594
43.46    622
43.48    650
43.5     660
43.52    666
43.54    650
43.56    573
43.58    530
43.6     510
43.62    457
43.64    506
43.66    595
43.68    687
43.7     665
43.72    682
43.74    721
43.76    716
43.78    689
43.8     608
43.82    509
43.84    523
43.86    503
43.88    451
43.9     450
43.92    505
43.94    563
43.96    566
43.98    544
44.0     551
44.02    548
44.04    502
44.06    405
44.08    389
44.1     471
44.12    482
44.14    469
44.16    456
44.18    471
44.2     486
44.22    451
44.24    397
44.26    358
44.28    352
44.3     409
44.32    400
44.34    410
44.36    428
44.38    482
44.4     525
44.42    502
44.44    537
44.46    527
44.48    526
44.5     532
44.52    595
44.54    644
44.56    682
44.58    652
44.6     639
44.62    590
44.64    565
44.66    489
44.68    404
44.7     300
44.72    353
44.74    367
44.76    457
44.78    511
44.8     685
44.82    845
44.84    951
44.86    987
44.88    953
44.9     900
44.92    920
44.94    914
44.96    1037
44.98    1213
45.0     1407
45.02    1522
45.04    1609
45.06    1662
45.08    1616
45.1     1485
45.12    1358
45.14    1268
45.16    1191
45.18    1129
45.2     1017
45.22    957
45.24    927
45.26    867
45.28    791
45.3     721
45.32    700
45.34    682
45.36    575
45.38    520
45.4     484
45.42    442
45.44    388
45.46    376
45.48    457
45.5     524
45.52    590
45.54    608
45.56    610
45.58    626
45.6     594
45.62    515
45.64    480
45.66    483
45.68    482
45.7     410
45.72    432
45.74    412
45.76    417
45.78    384
45.8     438
45.82    482
45.84    484
45.86    503
45.88    539
45.9     550
45.92    557
45.94    488
45.96    463
45.98    410
46.0     404
46.02    347
46.04    295
46.06    339
46.08    385
46.1     428
46.12    415
46.14    469
46.16    428
46.18    399
46.2     427
46.22    397
46.24    419
46.26    454
46.28    503
46.3     532
46.32    476
46.34    429
46.36    282
46.38    233
46.4     276
46.42    273
46.44    359
46.46    449
46.48    559
46.5     572
46.52    489
46.54    429
46.56    351
46.58    288
46.6     267
46.62    268
46.64    350
46.66    407
46.68    466
46.7     483
46.72    540
46.74    575
46.76    532
46.78    474
46.8     435
46.82    462
46.84    479
46.86    424
46.88    357
46.9     348
46.92    415
46.94    378
46.96    362
46.98    345
47.0     403
47.02    409
47.04    428
47.06    405
47.08    338
47.1     372
47.12    384
47.14    384
47.16    401
47.18    442
47.2     473
47.22    454
47.24    515
47.26    481
47.28    453
47.3     382
47.32    342
47.34    321
47.36    311
47.38    406
47.4     399
47.42    483
47.44    540
47.46    569
47.48    561
47.5     493
47.52    456
47.54    411
47.56    408
47.58    382
47.6     417
47.62    496
47.64    530
47.66    568
47.68    503
47.7     514
47.72    442
47.74    367
47.76    310
47.78    294
47.8     419
47.82    502
47.84    539
47.86    625
47.88    625
47.9     646
47.92    565
47.94    463
47.96    433
47.98    439
48.0     443
48.02    419
48.04    376
48.06    425
48.08    359
48.1     318
48.12    323
48.14    318
48.16    385
48.18    400
48.2     441
48.22    471
48.24    547
48.26    611
48.28    558
48.3     507
48.32    513
48.34    408
48.36    328
48.38    264
48.4     280
48.42    278
48.44    335
48.46    438
48.48    484
48.5     496
48.52    526
48.54    459
48.56    444
48.58    411
48.6     300
48.62    233
48.64    274
48.66    353
48.68    414
48.7     431
48.72    451
48.74    453
48.76    479
48.78    456
48.8     341
48.82    360
48.84    416
48.86    401
48.88    432
48.9     387
48.92    341
48.94    297
48.96    311
48.98    336
49.0     322
49.02    395
49.04    451
49.06    433
49.08    451
49.1     375
49.12    352
49.14    327
49.16    312
49.18    385
49.2     435
49.22    495
49.24    516
49.26    465
49.28    465
49.3     451
49.32    385
49.34    296
49.36    243
49.38    333
49.4     396
49.42    425
49.44    471
49.46    518
49.48    591
49.5     610
49.52    502
49.54    434
49.56    372
49.58    318
49.6     271
49.62    204
49.64    197
49.66    250
49.68    315
49.7     409
49.72    486
49.74    522
49.76    566
49.78    511
49.8     430
49.82    304
49.84    215
49.86    132
49.88    134
49.9     124
49.92    185
49.94    241
49.96    423
49.98    494
50.0     579
50.02    589
50.04    595
50.06    537
50.08    480
50.1     376
50.12    303
50.14    237
50.16    285
50.18    239
50.2     280
50.22    260
50.24    261
50.26    322
50.28    358
50.3     380
50.32    366
50.34    409
50.36    467
50.38    442
50.4     441
50.42    444
50.44    469
50.46    456
50.48    408
50.5     347
50.52    340
50.54    298
50.56    250
50.58    283
50.6     353
50.62    467
50.64    540
50.66    512
50.68    550
50.7     596
50.72    582
50.74    404
50.76    330
50.78    285
50.8     259
50.82    238
50.84    216
50.86    213
50.88    316
50.9     373
50.92    427
50.94    431
50.96    491
50.98    472
51.0     445
51.02    427
51.04    449
51.06    427
51.08    437
51.1     401
51.12    477
51.14    528
51.16    547
51.18    555
51.2     540
51.22    552
51.24    517
51.26    403
51.28    337
51.3     270
51.32    279
51.34    263
51.36    257
51.38    325
51.4     351
51.42    420
51.44    428
51.46    444
51.48    498
51.5     538
51.52    552
51.54    479
51.56    467
51.58    487
51.6     472
51.62    475
51.64    423
51.66    371
51.68    405
51.7     398
51.72    351
51.74    316
51.76    373
51.78    452
51.8     580
51.82    598
51.84    592
51.86    571
51.88    581
51.9     509
51.92    472
51.94    380
51.96    322
51.98    344
52.0     409
52.02    384
52.04    454
52.06    503
52.08    637
52.1     685
52.12    712
52.14    639
52.16    652
52.18    614
52.2     548
52.22    425
52.24    357
52.26    343
52.28    424
52.3     412
52.32    451
52.34    494
52.36    571
52.38    604
52.4     572
52.42    494
52.44    419
52.46    337
52.48    381
52.5     400
52.52    506
52.54    563
52.56    687
52.58    814
52.6     862
52.62    832
52.64    719
52.66    612
52.68    557
52.7     505
52.72    442
52.74    352
52.76    412
52.78    515
52.8     539
52.82    555
52.84    560
52.86    619
52.88    611
52.9     625
52.92    543
52.94    547
52.96    598
52.98    629
53.0     636
53.02    677
53.04    727
53.06    791
53.08    856
53.1     966
53.12    1050
53.14    1151
53.16    1247
53.18    1381
53.2     1550
53.22    1708
53.24    1847
53.26    2026
53.28    2239
53.3     2536
53.32    2776
53.34    3091
53.36    3455
53.38    3855
53.4     4273
53.42    4640
53.44    4870
53.46    5068
53.48    5110
53.5     5032
53.52    4809
53.54    4506
53.56    4036
53.58    3559
53.6     3129
53.62    2743
53.64    2375
53.66    2066
53.68    1876
53.7     1735
53.72    1571
53.74    1405
53.76    1210
53.78    1038
53.8     928
53.82    826
53.84    759
53.86    780
53.88    775
53.9     864
53.92    863
53.94    800
53.96    794
53.98    744
54.0     634
54.02    543
54.04    480
54.06    468
54.08    412
54.1     496
54.12    518
54.14    508
54.16    602
54.18    646
54.2     628
54.22    640
54.24    555
54.26    521
54.28    492
54.3     405
54.32    362
54.34    364
54.36    374
54.38    462
54.4     528
54.42    528
54.44    531
54.46    522
54.48    455
54.5     406
54.52    425
54.54    456
54.56    481
54.58    610
54.6     647
54.62    658
54.64    636
54.66    549
54.68    462
54.7     463
54.72    431
54.74    390
54.76    345
54.78    375
54.8     391
54.82    392
54.84    330
54.86    355
54.88    422
54.9     489
54.92    523
54.94    504
54.96    427
54.98    463
55.0     475
55.02    425
55.04    377
55.06    405
55.08    446
55.1     499
55.12    514
55.14    442
55.16    329
55.18    393
55.2     380
55.22    391
55.24    366
55.26    369
55.28    461
55.3     575
55.32    630
55.34    590
55.36    529
55.38    551
55.4     557
55.42    518
55.44    379
55.46    326
55.48    352
55.5     337
55.52    355
55.54    354
55.56    338
55.58    349
55.6     440
55.62    421
55.64    401
55.66    480
55.68    486
55.7     578
55.72    663
55.74    630
55.76    569
55.78    548
55.8     566
55.82    536
55.84    484
55.86    451
55.88    370
55.9     446
55.92    436
55.94    338
55.96    338
55.98    409
56.0     493
56.02    579
56.04    641
56.06    689
56.08    740
56.1     774
56.12    713
56.14    546
56.16    455
56.18    343
56.2     240
56.22    229
56.24    293
56.26    365
56.28    455
56.3     544
56.32    603
56.34    624
56.36    610
56.38    545
56.4     490
56.42    480
56.44    439
56.46    417
56.48    425
56.5     494
56.52    557
56.54    600
56.56    616
56.58    645
56.6     663
56.62    671
56.64    621
56.66    622
56.68    583
56.7     510
56.72    419
56.74    339
56.76    319
56.78    334
56.8     348
56.82    400
56.84    494
56.86    599
56.88    686
56.9     709
56.92    707
56.94    700
56.96    673
56.98    636
57.0     569
57.02    510
57.04    442
57.06    377
57.08    383
57.1     440
57.12    524
57.14    585
57.16    649
57.18    722
57.2     790
57.22    793
57.24    724
57.26    589
57.28    560
57.3     613
57.32    583
57.34    566
57.36    626
57.38    671
57.4     751
57.42    787
57.44    782
57.46    753
57.48    793
57.5     825
57.52    715
57.54    697
57.56    702
57.58    697
57.6     700
57.62    730
57.64    780
57.66    889
57.68    1001
57.7     1090
57.72    1132
57.74    1163
57.76    1179
57.78    1221
57.8     1251
57.82    1279
57.84    1291
57.86    1363
57.88    1488
57.9     1598
57.92    1851
57.94    1990
57.96    2246
57.98    2505
58.0     2855
58.02    3194
58.04    3559
58.06    4005
58.08    4512
58.1     5078
58.12    5752
58.14    6506
58.16    7277
58.18    8036
58.2     8931
58.22    9691
58.24    10302
58.26    10775
58.28    10932
58.3     10732
58.32    10345
58.34    9811
58.36    9024
58.38    8225
58.4     7461
58.42    6604
58.44    5852
58.46    5257
58.48    4597
58.5     3997
58.52    3552
58.54    3124
58.56    2747
58.58    2500
58.6     2271
58.62    2009
58.64    1887
58.66    1828
58.68    1634
58.7     1526
58.72    1415
58.74    1334
58.76    1209
58.78    1141
58.8     989
58.82    908
58.84    916
58.86    914
58.88    809
58.9     756
58.92    771
58.94    831
58.96    854
58.98    841
59.0     840
59.02    853
59.04    886
59.06    844
59.08    711
59.1     616
59.12    564
59.14    571
59.16    536
59.18    553
59.2     620
59.22    659
59.24    770
59.26    766
59.28    758
59.3     720
59.32    686
59.34    637
59.36    545
59.38    516
59.4     460
59.42    428
59.44    446
59.46    419
59.48    449
59.5     421
59.52    447
59.54    481
59.56    498
59.58    542
59.6     518
59.62    540
59.64    542
59.66    571
59.68    576
59.7     524
59.72    499
59.74    467
59.76    516
59.78    555
59.8     554
59.82    592
59.84    590
59.86    630
59.88    604
59.9     594
59.92    532
59.94    498
59.96    531
59.98    456
60.0     395
60.02    334
60.04    341
60.06    348
60.08    399
60.1     456
60.12    452
60.14    545
60.16    601
60.18    653
60.2     663
60.22    630
60.24    617
60.26    632
60.28    617
60.3     531
60.32    420
60.34    374
60.36    308
60.38    331
60.4     322
60.42    313
60.44    357
60.46    479
60.48    558
60.5     625
60.52    655
60.54    620
60.56    590
60.58    599
60.6     594
60.62    541
60.64    525
60.66    497
60.68    474
60.7     476
60.72    538
60.74    563
60.76    597
60.78    578
60.8     545
60.82    533
60.84    521
60.86    459
60.88    411
60.9     416
60.92    453
60.94    502
60.96    497
60.98    455
61.0     442
61.02    458
61.04    462
61.06    483
61.08    521
61.1     530
61.12    475
61.14    516
61.16    546
61.18    605
61.2     630
61.22    630
61.24    612
61.26    620
61.28    625
61.3     605
61.32    460
61.34    409
61.36    428
61.38    445
61.4     472
61.42    544
61.44    558
61.46    623
61.48    706
61.5     804
61.52    775
61.54    799
61.56    801
61.58    726
61.6     737
61.62    766
61.64    686
61.66    636
61.68    670
61.7     771
61.72    818
61.74    925
61.76    988
61.78    1027
61.8     1163
61.82    1331
61.84    1443
61.86    1588
61.88    1791
61.9     2056
61.92    2291
61.94    2607
61.96    2992
61.98    3473
62.0     4140
62.02    4898
62.04    5721
62.06    6640
62.08    7627
62.1     8627
62.12    9537
62.14    10278
62.16    10868
62.18    11165
62.2     11236
62.22    11045
62.24    10630
62.26    10035
62.28    9392
62.3     8745
62.32    8082
62.34    7390
62.36    6783
62.38    6134
62.4     5611
62.42    5112
62.44    4676
62.46    4153
62.48    3727
62.5     3358
62.52    2979
62.54    2684
62.56    2401
62.58    2151
62.6     1944
62.62    1670
62.64    1514
62.66    1355
62.68    1234
62.7     1108
62.72    991
62.74    920
62.76    873
62.78    884
62.8     879
62.82    813
62.84    820
62.86    869
62.88    858
62.9     812
62.92    736
62.94    653
62.96    607
62.98    575
63.0     567
63.02    493
63.04    499
63.06    491
63.08    491
63.1     468
63.12    458
63.14    468
63.16    502
63.18    517
63.2     581
63.22    574
63.24    646
63.26    691
63.28    672
63.3     612
63.32    616
63.34    636
63.36    630
63.38    543
63.4     514
63.42    469
63.44    463
63.46    492
63.48    428
63.5     422
63.52    381
63.54    401
63.56    445
63.58    410
63.6     419
63.62    492
63.64    509
63.66    639
63.68    633
63.7     661
63.72    540
63.74    507
63.76    505
63.78    426
63.8     377
63.82    365
63.84    357
63.86    462
63.88    469
63.9     470
63.92    436
63.94    458
63.96    546
63.98    598
64.0     618
64.02    566
64.04    527
64.06    542
64.08    572
64.1     508
64.12    483
64.14    479
64.16    494
64.18    477
64.2     449
64.22    430
64.24    392
64.26    447
64.28    525
64.3     552
64.32    668
64.34    731
64.36    746
64.38    763
64.4     774
64.42    822
64.44    778
64.46    763
64.48    742
64.5     688
64.52    725
64.54    745
64.56    725
64.58    811
64.6     884
64.62    1027
64.64    1150
64.66    1349
64.68    1611
64.7     1795
64.72    2019
64.74    2347
64.76    2534
64.78    2722
64.8     2876
64.82    2970
64.84    3052
64.86    3132
64.88    3214
64.9     3175
64.92    3106
64.94    3024
64.96    2814
64.98    2622
65.0     2486
65.02    2341
65.04    2179
65.06    1988
65.08    1851
65.1     1718
65.12    1574
65.14    1403
65.16    1274
65.18    1175
65.2     1100
65.22    1066
65.24    1000
65.26    945
65.28    892
65.3     858
65.32    827
65.34    765
65.36    643
65.38    585
65.4     556
65.42    567
65.44    597
65.46    587
65.48    525
65.5     482
65.52    435
65.54    354
65.56    285
65.58    296
65.6     358
65.62    421
65.64    512
65.66    578
65.68    628
65.7     643
65.72    665
65.74    613
65.76    582
65.78    486
65.8     493
65.82    432
65.84    391
65.86    379
65.88    371
65.9     322
65.92    377
65.94    389
65.96    427
65.98    401
66.0     493
66.02    543
66.04    528
66.06    547
66.08    560
66.1     540
66.12    548
66.14    535
66.16    527
66.18    436
66.2     342
66.22    308
66.24    207
66.26    205
66.28    252
66.3     271
66.32    328
66.34    333
66.36    401
66.38    473
66.4     497
66.42    507
66.44    515
66.46    513
66.48    464
66.5     390
66.52    416
66.54    367
66.56    378
66.58    408
66.6     399
66.62    398
66.64    428
66.66    454
66.68    479
66.7     451
66.72    523
66.74    518
66.76    494
66.78    430
66.8     382
66.82    367
66.84    310
66.86    327
66.88    323
66.9     292
66.92    302
66.94    306
66.96    361
66.98    439
67.0     463
67.02    544
67.04    566
67.06    573
67.08    600
67.1     579
67.12    495
67.14    484
67.16    458
67.18    417
67.2     352
67.22    389
67.24    391
67.26    394
67.28    353
67.3     294
67.32    309
67.34    391
67.36    446
67.38    473
67.4     528
67.42    554
67.44    575
67.46    592
67.48    567
67.5     500
67.52    435
67.54    394
67.56    393
67.58    376
67.6     415
67.62    460
67.64    493
67.66    531
67.68    527
67.7     525
67.72    479
67.74    497
67.76    501
67.78    455
67.8     410
67.82    366
67.84    297
67.86    323
67.88    333
67.9     406
67.92    419
67.94    482
67.96    504
67.98    515
68.0     506
68.02    485
68.04    456
68.06    508
68.08    507
68.1     509
68.12    504
68.14    498
68.16    544
68.18    565
68.2     572
68.22    551
68.24    552
68.26    527
68.28    525
68.3     543
68.32    549
68.34    620
68.36    603
68.38    583
68.4     567
68.42    547
68.44    566
68.46    558
68.48    571
68.5     640
68.52    709
68.54    792
68.56    807
68.58    881
68.6     868
68.62    874
68.64    906
68.66    972
68.68    1035
68.7     1105
68.72    1189
68.74    1278
68.76    1369
68.78    1530
68.8     1741
68.82    1913
68.84    2108
68.86    2326
68.88    2526
68.9     2611
68.92    2742
68.94    2856
68.96    2875
68.98    2870
69.0     2784
69.02    2633
69.04    2507
69.06    2372
69.08    2134
69.1     1915
69.12    1714
69.14    1573
69.16    1434
69.18    1310
69.2     1227
69.22    1201
69.24    1128
69.26    1071
69.28    950
69.3     901
69.32    817
69.34    813
69.36    759
69.38    750
69.4     738
69.42    651
69.44    556
69.46    534
69.48    513
69.5     561
69.52    606
69.54    619
69.56    625
69.58    671
69.6     624
69.62    546
69.64    485
69.66    487
69.68    444
69.7     376
69.72    306
69.74    313
69.76    340
69.78    378
69.8     349
69.82    390
69.84    439
69.86    511
69.88    514
69.9     498
69.92    540
69.94    565
69.96    556
69.98    510
70.0     524
70.02    602
70.04    636
70.06    672
70.08    647
70.1     666
70.12    664
70.14    651
70.16    664
70.18    649
70.2     696
70.22    776
70.24    811
70.26    892
70.28    927
70.3     982
70.32    997
70.34    1062
70.36    1110
70.38    1126
70.4     1158
70.42    1195
70.44    1180
70.46    1238
70.48    1308
70.5     1368
70.52    1438
70.54    1492
70.56    1460
70.58    1431
70.6     1444
70.62    1361
70.64    1264
70.66    1264
70.68    1205
70.7     1094
70.72    989
70.74    939
70.76    852
70.78    841
70.8     836
70.82    840
70.84    851
70.86    832
70.88    702
70.9     644
70.92    594
70.94    598
70.96    544
70.98    518
71.0     482
71.02    451
71.04    383
71.06    339
71.08    337
71.1     413
71.12    465
71.14    563
71.16    623
71.18    692
71.2     735
71.22    742
71.24    768
71.26    789
71.28    734
71.3     671
71.32    569
71.34    481
71.36    391
71.38    387
71.4     387
71.42    376
71.44    389
71.46    379
71.48    368
71.5     361
71.52    315
71.54    343
71.56    433
71.58    516
71.6     538
71.62    513
71.64    532
71.66    531
71.68    520
71.7     502
71.72    516
71.74    562
71.76    583
71.78    511
71.8     505
71.82    526
71.84    621
71.86    583
71.88    601
71.9     593
71.92    550
71.94    509
71.96    459
71.98    481
72.0     512
72.02    564
72.04    630
72.06    697
72.08    808
72.1     837
72.12    834
72.14    826
72.16    883
72.18    979
72.2     991
72.22    1078
72.24    1184
72.26    1306
72.28    1384
72.3     1491
72.32    1554
72.34    1636
72.36    1757
72.38    1874
72.4     2003
72.42    2189
72.44    2347
72.46    2552
72.48    2782
72.5     3077
72.52    3264
72.54    3472
72.56    3558
72.58    3594
72.6     3575
72.62    3487
72.64    3368
72.66    3255
72.68    3040
72.7     2820
72.72    2524
72.74    2310
72.76    2038
72.78    1832
72.8     1655
72.82    1517
72.84    1397
72.86    1302
72.88    1180
72.9     1111
72.92    1025
72.94    993
72.96    959
72.98    921
73.0     856
73.02    851
73.04    816
73.06    848
73.08    874
73.1     900
73.12    859
73.14    847
73.16    830
73.18    707
73.2     720
73.22    659
73.24    611
73.26    602
73.28    561
73.3     551
73.32    577
73.34    626
73.36    725
73.38    784
73.4     896
73.42    886
73.44    935
73.46    969
73.48    990
73.5     1042
73.52    1037
73.54    980
73.56    998
73.58    969
73.6     900
73.62    871
73.64    857
73.66    834
73.68    843
73.7     869
73.72    804
73.74    794
73.76    811
73.78    760
73.8     687
73.82    652
73.84    622
73.86    579
73.88    553
73.9     542
73.92    483
73.94    527
73.96    577
73.98    581
74.0     681
74.02    754
74.04    836
74.06    865
74.08    875
74.1     942
74.12    979
74.14    1069
74.16    1177
74.18    1259
74.2     1356
74.22    1365
74.24    1453
74.26    1511
74.28    1611
74.3     1737
74.32    1802
74.34    1870
74.36    1859
74.38    1828
74.4     1709
74.42    1667
74.44    1653
74.46    1650
74.48    1630
74.5     1614
74.52    1609
74.54    1602
74.56    1547
74.58    1492
74.6     1444
74.62    1492
74.64    1453
74.66    1510
74.68    1514
74.7     1557
74.72    1586
74.74    1633
74.76    1676
74.78    1699
74.8     1777
74.82    1817
74.84    1778
74.86    1846
74.88    1763
74.9     1742
74.92    1630
74.94    1574
74.96    1456
74.98    1367
75.0     1263
75.02    1177
75.04    1112
75.06    1062
75.08    938
75.1     881
75.12    761
75.14    769
75.16    662
75.18    614
75.2     522
75.22    563
75.24    601
75.26    594
75.28    615
75.3     607
75.32    603
75.34    638
75.36    501
75.38    507
75.4     508
75.42    588
75.44    508
75.46    432
75.48    401
75.5     324
75.52    339
75.54    371
75.56    350
75.58    518
75.6     540
75.62    512
75.64    384
75.66    370
75.68    387
75.7     365
75.72    403
75.74    381
75.76    395
75.78    434
75.8     302
75.82    243
75.84    264
75.86    323
75.88    346
75.9     371
75.92    357
75.94    355
75.96    456
75.98    458
76.0     392
76.02    385
76.04    381
76.06    374
76.08    399
76.1     432
76.12    396
76.14    463
76.16    516
76.18    418
76.2     366
76.22    337
76.24    338
76.26    389
76.28    421
76.3     431
76.32    379
76.34    383
76.36    426
76.38    368
76.4     396
76.42    368
76.44    402
76.46    378
76.48    348
76.5     352
76.52    337
76.54    328
76.56    438
76.58    440
76.6     469
76.62    423
76.64    484
76.66    467
76.68    507
76.7     544
76.72    550
76.74    509
76.76    528
76.78    497
76.8     417
76.82    338
76.84    404
76.86    393
76.88    393
76.9     428
76.92    416
76.94    444
76.96    474
76.98    470
77.0     498
77.02    580
77.04    690
77.06    675
77.08    702
77.1     737
77.12    648
77.14    634
77.16    595
77.18    624
77.2     735
77.22    794
77.24    839
77.26    894
77.28    961
77.3     1052
77.32    1142
77.34    1363
77.36    1530
77.38    1743
77.4     1913
77.42    2046
77.44    2204
77.46    2384
77.48    2550
77.5     2816
77.52    3114
77.54    3359
77.56    3453
77.58    3557
77.6     3550
77.62    3490
77.64    3482
77.66    3415
77.68    3413
77.7     3416
77.72    3362
77.74    3208
77.76    3037
77.78    2899
77.8     2681
77.82    2504
77.84    2404
77.86    2226
77.88    2096
77.9     1919
77.92    1699
77.94    1498
77.96    1365
77.98    1211
78.0     1104
78.02    1010
78.04    948
78.06    872
78.08    791
78.1     734
78.12    654
78.14    643
78.16    684
78.18    664
78.2     648
78.22    623
78.24    608
78.26    606
78.28    614
78.3     598
78.32    572
78.34    587
78.36    596
78.38    552
78.4     517
78.42    512
78.44    483
78.46    486
78.48    480
78.5     446
78.52    442
78.54    441
78.56    423
78.58    429
78.6     397
78.62    377
78.64    316
78.66    298
78.68    250
78.7     239
78.72    303
78.74    369
78.76    412
78.78    475
78.8     484
78.82    521
78.84    553
78.86    600
78.88    556
78.9     493
78.92    503
78.94    401
78.96    332
78.98    274
79.0     250
79.02    235
79.04    292
79.06    295
79.08    246
79.1     225
79.12    310
79.14    280
79.16    385
79.18    458
79.2     497
79.22    521
79.24    542
79.26    540
79.28    536
79.3     561
79.32    572
79.34    521
79.36    501
79.38    418
79.4     352
79.42    302
79.44    268
79.46    320
79.48    329
79.5     336
79.52    327
79.54    292
79.56    292
79.58    241
79.6     286
79.62    277
79.64    334
79.66    425
79.68    464
79.7     498
79.72    526
79.74    546
79.76    589
79.78    521
79.8     566
79.82    556
79.84    533
79.86    493
79.88    415
79.9     361
79.92    361
79.94    340
79.96    364
79.98    341
80.0     418
80.02    460
80.04    422
80.06    426
80.08    424
80.1     445
80.12    545
80.14    558
80.16    552
80.18    544
80.2     513
80.22    533
80.24    468
80.26    453
80.28    435
80.3     405
80.32    496
80.34    504
80.36    459
80.38    449
80.4     421
80.42    389
80.44    328
80.46    285
80.48    308
80.5     356
80.52    403
80.54    452
80.56    399
80.58    388
80.6     401
80.62    385
80.64    449
80.66    467
80.68    504
80.7     558
80.72    496
80.74    440
80.76    316
80.78    302
80.8     289
80.82    281
80.84    322
80.86    312
80.88    334
80.9     357
80.92    313
80.94    252
80.96    227
80.98    273
81.0     338
81.02    349
81.04    430
81.06    432
81.08    453
81.1     430
81.12    403
81.14    375
81.16    363
81.18    372
81.2     391
81.22    376
81.24    387
81.26    332
81.28    295
81.3     307
81.32    276
81.34    312
81.36    319
81.38    275
81.4     286
81.42    357
81.44    344
81.46    346
81.48    378
81.5     458
81.52    433
81.54    414
81.56    403
81.58    303
81.6     347
81.62    411
81.64    402
81.66    428
81.68    452
81.7     464
81.72    430
81.74    393
81.76    389
81.78    298
81.8     294
81.82    341
81.84    327
81.86    320
81.88    343
81.9     338
81.92    291
81.94    330
81.96    279
81.98    196
82.0     201
82.02    240
82.04    228
82.06    255
82.08    320
82.1     345
82.12    297
82.14    350
82.16    296
82.18    256
82.2     330
82.22    369
82.24    361
82.26    339
82.28    371
82.3     405
82.32    369
82.34    394
82.36    343
82.38    342
82.4     435
82.42    405
82.44    355
82.46    265
82.48    227
82.5     218
82.52    225
82.54    238
82.56    188
82.58    249
82.6     337
82.62    329
82.64    318
82.66    298
82.68    278
82.7     261
82.72    292
82.74    293
82.76    234
82.78    272
82.8     305
82.82    304
82.84    320
82.86    339
82.88    354
82.9     390
82.92    451
82.94    454
82.96    423
82.98    410
83.0     361
83.02    381
83.04    398
83.06    381
83.08    377
83.1     340
83.12    359
83.14    343
83.16    311
83.18    326
83.2     291
83.22    349
83.24    329
83.26    327
83.28    248
83.3     209
83.32    235
83.34    236
83.36    239
83.38    304
83.4     314
83.42    387
83.44    427
83.46    439
83.48    370
83.5     386
83.52    341
83.54    322
83.56    314
83.58    329
83.6     363
83.62    409
83.64    439
83.66    392
83.68    302
83.7     282
83.72    225
83.74    150
83.76    132
83.78    125
83.8     113
83.82    134
83.84    157
83.86    145
83.88    146
83.9     180
83.92    240
83.94    325
83.96    426
83.98    465
84.0     500
84.02    483
84.04    470
84.06    448
84.08    432
84.1     364
84.12    358
84.14    409
84.16    417
84.18    357
84.2     310
84.22    305
84.24    361
84.26    409
84.28    417
84.3     406
84.32    365
84.34    298
84.36    267
84.38    188
84.4     150
84.42    154
84.44    234
84.46    306
84.48    358
84.5     414
84.52    396
84.54    417
84.56    444
84.58    439
84.6     438
84.62    401
84.64    440
84.66    487
84.68    545
84.7     568
84.72    544
84.74    545
84.76    519
84.78    419
84.8     363
84.82    318
84.84    319
84.86    323
84.88    363
84.9     425
84.92    423
84.94    423
84.96    399
84.98    351
85.0     353
85.02    363
85.04    428
85.06    415
85.08    450
85.1     495
85.12    459
85.14    418
85.16    351
85.18    323
85.2     293
85.22    281
85.24    302
85.26    278
85.28    300
85.3     280
85.32    289
85.34    311
85.36    285
85.38    279
85.4     273
85.42    270
85.44    261
85.46    242
85.48    229
85.5     160
85.52    173
85.54    148
85.56    167
85.58    199
85.6     257
85.62    346
85.64    383
85.66    429
85.68    427
85.7     384
85.72    351
85.74    301
85.76    294
85.78    277
85.8     275
85.82    245
85.84    228
85.86    234
85.88    217
85.9     268
85.92    296
85.94    393
85.96    442
85.98    464
86.0     483
86.02    479
86.04    450
86.06    427
86.08    384
86.1     385
86.12    355
86.14    366
86.16    368
86.18    395
86.2     464
86.22    580
86.24    646
86.26    729
86.28    736
86.3     743
86.32    753
86.34    759
86.36    778
86.38    765
86.4     841
86.42    905
86.44    872
86.46    826
86.48    760
86.5     699
86.52    673
86.54    701
86.56    725
86.58    731
86.6     794
86.62    746
86.64    706
86.66    675
86.68    623
86.7     611
86.72    639
86.74    679
86.76    704
86.78    667
86.8     612
86.82    558
86.84    540
86.86    503
86.88    473
86.9     455
86.92    418
86.94    391
86.96    367
86.98    315
87.0     255
87.02    251
87.04    220
87.06    209
87.08    226
87.1     244
87.12    244
87.14    312
87.16    364
87.18    401
87.2     375
87.22    341
87.24    324
87.26    358
87.28    363
87.3     399
87.32    441
87.34    466
87.36    464
87.38    430
87.4     381
87.42    271
87.44    250
87.46    186
87.48    133
87.5     212
87.52    282
87.54    222
87.56    277
87.58    280
87.6     323
87.62    265
87.64    324
87.66    262
87.68    301
87.7     366
87.72    401
87.74    353
87.76    424
87.78    350
87.8     338
87.82    326
87.84    334
87.86    300
87.88    370
87.9     423
87.92    410
87.94    426
87.96    410
87.98    302
88.0     266
88.02    225
88.04    170
88.06    215
88.08    257
88.1     349
88.12    387
88.14    465
88.16    453
88.18    410
88.2     413
88.22    391
88.24    390
88.26    381
88.28    353
88.3     413
88.32    389
88.34    374
88.36    346
88.38    284
88.4     217
88.42    183
88.44    114
88.46    63
88.48    19
88.5     47
88.52    100
88.54    181
88.56    241
88.58    255
88.6     266
88.62    214
88.64    140
88.66    127
88.68    156
88.7     235
88.72    332
88.74    379
88.76    473
88.78    512
88.8     550
88.82    436
88.84    383
88.86    335
88.88    365
88.9     370
88.92    387
88.94    414
88.96    438
88.98    445
89.0     442
89.02    388
89.04    343
89.06    256
89.08    255
89.1     257
89.12    244
89.14    231
89.16    278
89.18    278
89.2     249
89.22    276
89.24    232
89.26    168
89.28    164
89.3     198
89.32    161
89.34    183
89.36    295
89.38    334
89.4     344
89.42    435
89.44    399
89.46    436
89.48    503
89.5     538
89.52    508
89.54    469
89.56    517
89.58    460
89.6     443
89.62    449
89.64    379
89.66    381
89.68    467
89.7     428
89.72    433
89.74    395
89.76    376
89.78    308
89.8     334
89.82    335
89.84    334
89.86    411
89.88    468
89.9     406
89.92    438
89.94    412
89.96    392
89.98    397
90.0     400
