?
5.0      675
5.02     675
5.04     873
5.06     794
5.08     825
5.1      805
5.12     819
5.14     818
5.16     823
5.18     811
5.2      818
5.22     787
5.24     788
5.26     805
5.28     797
5.3      811
5.32     833
5.34     827
5.36     808
5.38     820
5.4      818
5.42     777
5.44     767
5.46     748
5.48     733
5.5      736
5.52     731
5.54     759
5.56     779
5.58     813
5.6      857
5.62     850
5.64     870
5.66     907
5.68     886
5.7      888
5.72     865
5.74     839
5.76     823
5.78     782
5.8      774
5.82     749
5.84     798
5.86     866
5.88     843
5.9      864
5.92     834
5.94     827
5.96     818
5.98     746
6.0      786
6.02     769
6.04     842
6.06     874
6.08     848
6.1      854
6.12     827
6.14     790
6.16     701
6.18     659
6.2      687
6.22     682
6.24     754
6.26     790
6.28     843
6.3      885
6.32     896
6.34     863
6.36     837
6.38     814
6.4      793
6.42     777
6.44     789
6.46     764
6.48     787
6.5      768
6.52     753
6.54     772
6.56     772
6.58     774
6.6      822
6.62     852
6.64     867
6.66     818
6.68     784
6.7      765
6.72     705
6.74     736
6.76     712
6.78     718
6.8      770
6.82     771
6.84     769
6.86     715
6.88     720
6.9      736
6.92     708
6.94     777
6.96     792
6.98     812
7.0      844
7.02     848
7.04     893
7.06     857
7.08     896
7.1      848
7.12     811
7.14     819
7.16     785
7.18     757
7.2      721
7.22     722
7.24     767
7.26     776
7.28     828
7.3      794
7.32     810
7.34     834
7.36     819
7.38     815
7.4      748
7.42     731
7.44     744
7.46     710
7.48     703
7.5      707
7.52     733
7.54     771
7.56     794
7.58     807
7.6      814
7.62     804
7.64     829
7.66     764
7.68     833
7.7      823
7.72     831
7.74     818
7.76     840
7.78     783
7.8      834
7.82     790
7.84     811
7.86     816
7.88     874
7.9      854
7.92     866
7.94     876
7.96     888
7.98     856
8.0      881
8.02     858
8.04     833
8.06     853
8.08     802
8.1      777
8.12     798
8.14     786
8.16     803
8.18     809
8.2      796
8.22     812
8.24     819
8.26     866
8.28     833
8.3      840
8.32     883
8.34     892
8.36     905
8.38     827
8.4      855
8.42     836
8.44     873
8.46     895
8.48     895
8.5      903
8.52     908
8.54     973
8.56     931
8.58     883
8.6      965
8.62     881
8.64     944
8.66     894
8.68     874
8.7      866
8.72     842
8.74     849
8.76     784
8.78     804
8.8      791
8.82     773
8.84     858
8.86     818
8.88     829
8.9      835
8.92     838
8.94     879
8.96     861
8.98     919
9.0      861
9.02     959
9.04     926
9.06     905
9.08     842
9.1      794
9.12     798
9.14     820
9.16     807
9.18     856
9.2      836
9.22     902
9.24     870
9.26     940
9.28     922
9.3      923
9.32     956
9.34     1007
9.36     985
9.38     1005
9.4      951
9.42     942
9.44     904
9.46     850
9.48     786
9.5      744
9.52     779
9.54     817
9.56     800
9.58     847
9.6      860
9.62     876
9.64     886
9.66     823
9.68     823
9.7      823
9.72     846
9.74     835
9.76     823
9.78     836
9.8      824
9.82     818
9.84     822
9.86     815
9.88     868
9.9      891
9.92     850
9.94     803
9.96     782
9.98     797
10.0     761
10.02    775
10.04    794
10.06    788
10.08    815
10.1     829
10.12    775
10.14    795
10.16    799
10.18    839
10.2     837
10.22    903
10.24    901
10.26    841
10.28    905
10.3     875
10.32    835
10.34    868
10.36    880
10.38    859
10.4     824
10.42    843
10.44    825
10.46    788
10.48    853
10.5     721
10.52    736
10.54    752
10.56    807
10.58    810
10.6     837
10.62    910
10.64    949
10.66    912
10.68    951
10.7     870
10.72    878
10.74    846
10.76    852
10.78    831
10.8     844
10.82    844
10.84    828
10.86    854
10.88    863
10.9     847
10.92    821
10.94    889
10.96    827
10.98    814
11.0     868
11.02    858
11.04    915
11.06    978
11.08    927
11.1     933
11.12    949
11.14    942
11.16    868
11.18    885
11.2     831
11.22    811
11.24    863
11.26    876
11.28    887
11.3     934
11.32    921
11.34    918
11.36    931
11.38    911
11.4     882
11.42    911
11.44    941
11.46    988
11.48    1027
11.5     1011
11.52    1007
11.54    1048
11.56    1002
11.58    991
11.6     1098
11.62    1023
11.64    997
11.66    1015
11.68    1023
11.7     951
11.72    1016
11.74    1014
11.76    972
11.78    1011
11.8     1067
11.82    936
11.84    905
11.86    887
11.88    937
11.9     900
11.92    984
11.94    937
11.96    917
11.98    958
12.0     960
12.02    884
12.04    895
12.06    921
12.08    1005
12.1     978
12.12    1016
12.14    1010
12.16    1024
12.18    1068
12.2     1094
12.22    1078
12.24    1113
12.26    1084
12.28    1084
12.3     1057
12.32    1052
12.34    1052
12.36    1076
12.38    1077
12.4     1044
12.42    1037
12.44    1047
12.46    998
12.48    1010
12.5     998
12.52    1003
12.54    1021
12.56    1000
12.58    971
12.6     933
12.62    966
12.64    961
12.66    943
12.68    988
12.7     978
12.72    1047
12.74    1077
12.76    1036
12.78    1059
12.8     1066
12.82    1013
12.84    996
12.86    986
12.88    959
12.9     920
12.92    987
12.94    998
12.96    930
12.98    964
13.0     1006
13.02    953
13.04    1007
13.06    986
13.08    945
13.1     1022
13.12    1042
13.14    1006
13.16    1000
13.18    1117
13.2     1153
13.22    1111
13.24    1131
13.26    1112
13.28    1102
13.3     1150
13.32    1095
13.34    1058
13.36    1079
13.38    1070
13.4     1036
13.42    1047
13.44    1069
13.46    1053
13.48    1074
13.5     1084
13.52    1065
13.54    1062
13.56    1034
13.58    1000
13.6     1064
13.62    1135
13.64    1100
13.66    1126
13.68    1155
13.7     1152
13.72    1139
13.74    1153
13.76    1157
13.78    1157
13.8     1113
13.82    1123
13.84    1094
13.86    1095
13.88    1102
13.9     1068
13.92    1073
13.94    1118
13.96    1146
13.98    1154
14.0     1118
14.02    1156
14.04    1155
14.06    1173
14.08    1202
14.1     1147
14.12    1207
14.14    1243
14.16    1242
14.18    1204
14.2     1181
14.22    1148
14.24    1119
14.26    1120
14.28    1119
14.3     1123
14.32    1189
14.34    1191
14.36    1182
14.38    1129
14.4     1175
14.42    1194
14.44    1127
14.46    1069
14.48    1100
14.5     1153
14.52    1180
14.54    1153
14.56    1175
14.58    1145
14.6     1162
14.62    1175
14.64    1131
14.66    1115
14.68    1145
14.7     1121
14.72    1127
14.74    1147
14.76    1205
14.78    1233
14.8     1290
14.82    1345
14.84    1341
14.86    1357
14.88    1370
14.9     1338
14.92    1281
14.94    1248
14.96    1298
14.98    1310
15.0     1281
15.02    1298
15.04    1250
15.06    1193
15.08    1196
15.1     1185
15.12    1092
15.14    1025
15.16    1105
15.18    1079
15.2     1106
15.22    1182
15.24    1189
15.26    1097
15.28    1108
15.3     1174
15.32    1186
15.34    1168
15.36    1216
15.38    1205
15.4     1230
15.42    1240
15.44    1280
15.46    1198
15.48    1187
15.5     1218
15.52    1225
15.54    1197
15.56    1164
15.58    1160
15.6     1218
15.62    1229
15.64    1251
15.66    1244
15.68    1291
15.7     1337
15.72    1387
15.74    1383
15.76    1351
15.78    1363
15.8     1446
15.82    1397
15.84    1449
15.86    1515
15.88    1515
15.9     1506
15.92    1540
15.94    1613
15.96    1670
15.98    1786
16.0     1913
16.02    1986
16.04    2157
16.06    2265
16.08    2304
16.1     2368
16.12    2509
16.14    2693
16.16    2829
16.18    3005
16.2     3265
16.22    3612
16.24    4000
16.26    4495
16.28    5043
16.3     5657
16.32    6435
16.34    7367
16.36    8492
16.38    9931
16.4     11658
16.42    13835
16.44    16549
16.46    19896
16.48    23844
16.5     28382
16.52    33051
16.54    37288
16.56    40242
16.58    41388
16.6     40263
16.62    37042
16.64    32133
16.66    26320
16.68    20630
16.7     15693
16.72    11638
16.74    8762
16.76    6809
16.78    5541
16.8     4670
16.82    4047
16.84    3495
16.86    3089
16.88    2850
16.9     2644
16.92    2341
16.94    2208
16.96    2103
16.98    1906
17.0     1832
17.02    1825
17.04    1773
17.06    1688
17.08    1581
17.1     1563
17.12    1548
17.14    1530
17.16    1464
17.18    1388
17.2     1393
17.22    1405
17.24    1381
17.26    1303
17.28    1217
17.3     1250
17.32    1268
17.34    1201
17.36    1145
17.38    1144
17.4     1151
17.42    1175
17.44    1125
17.46    1049
17.48    1034
17.5     1131
17.52    1132
17.54    1081
17.56    1095
17.58    1156
17.6     1144
17.62    1128
17.64    1086
17.66    1053
17.68    1028
17.7     1045
17.72    975
17.74    937
17.76    1027
17.78    1041
17.8     963
17.82    951
17.84    1023
17.86    1052
17.88    1043
17.9     1034
17.92    997
17.94    948
17.96    957
17.98    893
18.0     848
18.02    820
18.04    821
18.06    827
18.08    878
18.1     898
18.12    906
18.14    899
18.16    943
18.18    943
18.2     939
18.22    825
18.24    752
18.26    746
18.28    783
18.3     759
18.32    727
18.34    717
18.36    692
18.38    698
18.4     737
18.42    720
18.44    713
18.46    719
18.48    744
18.5     698
18.52    724
18.54    751
18.56    754
18.58    811
18.6     842
18.62    796
18.64    655
18.66    617
18.68    609
18.7     587
18.72    619
18.74    662
18.76    720
18.78    778
18.8     797
18.82    782
18.84    741
18.86    773
18.88    741
18.9     691
18.92    665
18.94    684
18.96    689
18.98    697
19.0     701
19.02    695
19.04    743
19.06    755
19.08    697
19.1     706
19.12    675
19.14    640
19.16    565
19.18    580
19.2     624
19.22    636
19.24    717
19.26    733
19.28    731
19.3     754
19.32    682
19.34    655
19.36    623
19.38    689
19.4     764
19.42    684
19.44    664
19.46    598
19.48    587
19.5     524
19.52    508
19.54    550
19.56    564
19.58    589
19.6     587
19.62    498
19.64    582
19.66    591
19.68    610
19.7     559
19.72    600
19.74    655
19.76    612
19.78    565
19.8     570
19.82    655
19.84    750
19.86    679
19.88    629
19.9     596
19.92    618
19.94    565
19.96    498
19.98    511
20.0     582
20.02    638
20.04    598
20.06    503
20.08    473
20.1     529
20.12    526
20.14    459
20.16    430
20.18    412
20.2     412
20.22    415
20.24    426
20.26    434
20.28    500
20.3     567
20.32    559
20.34    556
20.36    524
20.38    505
20.4     511
20.42    518
20.44    531
20.46    550
20.48    597
20.5     602
20.52    623
20.54    576
20.56    551
20.58    563
20.6     584
20.62    558
20.64    533
20.66    514
20.68    580
20.7     630
20.72    623
20.74    588
20.76    606
20.78    661
20.8     635
20.82    589
20.84    492
20.86    442
20.88    488
20.9     560
20.92    617
20.94    666
20.96    672
20.98    616
21.0     520
21.02    505
21.04    413
21.06    359
21.08    362
21.1     497
21.12    551
21.14    586
21.16    566
21.18    510
21.2     507
21.22    597
21.24    578
21.26    536
21.28    476
21.3     537
21.32    452
21.34    451
21.36    357
21.38    352
21.4     351
21.42    431
21.44    465
21.46    516
21.48    541
21.5     614
21.52    562
21.54    536
21.56    478
21.58    477
21.6     379
21.62    408
21.64    448
21.66    479
21.68    486
21.7     483
21.72    484
21.74    486
21.76    539
21.78    516
21.8     472
21.82    541
21.84    567
21.86    537
21.88    508
21.9     488
21.92    483
21.94    438
21.96    410
21.98    394
22.0     380
22.02    398
22.04    425
22.06    440
22.08    444
22.1     442
22.12    428
22.14    399
22.16    356
22.18    356
22.2     302
22.22    314
22.24    359
22.26    388
22.28    400
22.3     397
22.32    475
22.34    497
22.36    453
22.38    452
22.4     493
22.42    484
22.44    538
22.46    493
22.48    470
22.5     436
22.52    525
22.54    515
22.56    478
22.58    431
22.6     424
22.62    327
22.64    352
22.66    362
22.68    429
22.7     509
22.72    535
22.74    521
22.76    490
22.78    443
22.8     395
22.82    348
22.84    362
22.86    432
22.88    427
22.9     453
22.92    419
22.94    503
22.96    538
22.98    550
23.0     488
23.02    446
23.04    404
23.06    400
23.08    340
23.1     385
23.12    388
23.14    408
23.16    408
23.18    397
23.2     414
23.22    448
23.24    443
23.26    479
23.28    470
23.3     519
23.32    461
23.34    357
23.36    302
23.38    319
23.4     410
23.42    468
23.44    400
23.46    380
23.48    360
23.5     434
23.52    432
23.54    416
23.56    419
23.58    459
23.6     489
23.62    497
23.64    415
23.66    390
23.68    349
23.7     387
23.72    412
23.74    457
23.76    419
23.78    407
23.8     401
23.82    446
23.84    390
23.86    372
23.88    313
23.9     333
23.92    317
23.94    341
23.96    344
23.98    455
24.0     514
24.02    544
24.04    487
24.06    478
24.08    470
24.1     447
24.12    357
24.14    273
24.16    252
24.18    282
24.2     326
24.22    309
24.24    365
24.26    430
24.28    515
24.3     527
24.32    537
24.34    462
24.36    467
24.38    424
24.4     424
24.42    373
24.44    420
24.46    426
24.48    459
24.5     428
24.52    469
24.54    462
24.56    427
24.58    341
24.6     298
24.62    281
24.64    312
24.66    397
24.68    430
24.7     437
24.72    516
24.74    586
24.76    558
24.78    509
24.8     385
24.82    350
24.84    326
24.86    398
24.88    335
24.9     407
24.92    505
24.94    572
24.96    555
24.98    497
25.0     429
25.02    455
25.04    494
25.06    486
25.08    472
25.1     469
25.12    466
25.14    378
25.16    345
25.18    307
25.2     305
25.22    345
25.24    405
25.26    460
25.28    488
25.3     444
25.32    408
25.34    363
25.36    408
25.38    428
25.4     424
25.42    431
25.44    447
25.46    472
25.48    454
25.5     366
25.52    340
25.54    341
25.56    407
25.58    436
25.6     410
25.62    402
25.64    420
25.66    449
25.68    439
25.7     356
25.72    422
25.74    419
25.76    496
25.78    483
25.8     492
25.82    486
25.84    529
25.86    496
25.88    418
25.9     339
25.92    316
25.94    279
25.96    281
25.98    338
26.0     397
26.02    430
26.04    541
26.06    525
26.08    558
26.1     502
26.12    478
26.14    443
26.16    384
26.18    423
26.2     415
26.22    382
26.24    399
26.26    352
26.28    351
26.3     298
26.32    302
26.34    301
26.36    301
26.38    343
26.4     368
26.42    353
26.44    378
26.46    358
26.48    341
26.5     334
26.52    338
26.54    405
26.56    425
26.58    428
26.6     410
26.62    436
26.64    402
26.66    347
26.68    343
26.7     399
26.72    479
26.74    472
26.76    453
26.78    397
26.8     402
26.82    415
26.84    384
26.86    350
26.88    425
26.9     437
26.92    449
26.94    387
26.96    459
26.98    488
27.0     523
27.02    533
27.04    430
27.06    390
27.08    421
27.1     328
27.12    285
27.14    227
27.16    189
27.18    186
27.2     275
27.22    329
27.24    411
27.26    524
27.28    595
27.3     542
27.32    480
27.34    321
27.36    210
27.38    193
27.4     242
27.42    244
27.44    338
27.46    340
27.48    401
27.5     437
27.52    463
27.54    496
27.56    475
27.58    452
27.6     414
27.62    397
27.64    410
27.66    383
27.68    397
27.7     348
27.72    286
27.74    314
27.76    267
27.78    268
27.8     315
27.82    408
27.84    481
27.86    463
27.88    432
27.9     375
27.92    384
27.94    412
27.96    389
27.98    407
28.0     401
28.02    392
28.04    379
28.06    350
28.08    329
28.1     322
28.12    319
28.14    328
28.16    349
28.18    377
28.2     349
28.22    316
28.24    344
28.26    395
28.28    400
28.3     404
28.32    383
28.34    429
28.36    436
28.38    410
28.4     368
28.42    317
28.44    313
28.46    353
28.48    350
28.5     403
28.52    402
28.54    439
28.56    401
28.58    392
28.6     373
28.62    328
28.64    284
28.66    264
28.68    225
28.7     343
28.72    337
28.74    431
28.76    467
28.78    502
28.8     554
28.82    520
28.84    496
28.86    474
28.88    414
28.9     459
28.92    373
28.94    362
28.96    328
28.98    281
29.0     283
29.02    231
29.04    242
29.06    227
29.08    250
29.1     317
29.12    370
29.14    400
29.16    457
29.18    441
29.2     463
29.22    418
29.24    326
29.26    256
29.28    271
29.3     321
29.32    375
29.34    374
29.36    427
29.38    420
29.4     445
29.42    467
29.44    379
29.46    342
29.48    322
29.5     347
29.52    360
29.54    347
29.56    373
29.58    414
29.6     446
29.62    538
29.64    498
29.66    510
29.68    451
29.7     386
29.72    333
29.74    276
29.76    297
29.78    397
29.8     429
29.82    482
29.84    457
29.86    455
29.88    421
29.9     355
29.92    379
29.94    399
29.96    497
29.98    588
30.0     531
30.02    512
30.04    405
30.06    347
30.08    341
30.1     322
30.12    371
30.14    388
30.16    445
30.18    381
30.2     342
30.22    363
30.24    346
30.26    366
30.28    404
30.3     435
30.32    444
30.34    448
30.36    466
30.38    397
30.4     457
30.42    408
30.44    419
30.46    350
30.48    285
30.5     251
30.52    245
30.54    285
30.56    391
30.58    413
30.6     452
30.62    403
30.64    401
30.66    400
30.68    344
30.7     454
30.72    545
30.74    603
30.76    697
30.78    556
30.8     500
30.82    413
30.84    317
30.86    379
30.88    321
30.9     372
30.92    371
30.94    284
30.96    330
30.98    266
31.0     292
31.02    349
31.04    342
31.06    414
31.08    374
31.1     345
31.12    356
31.14    306
31.16    397
31.18    445
31.2     391
31.22    442
31.24    400
31.26    339
31.28    402
31.3     384
31.32    383
31.34    347
31.36    308
31.38    314
31.4     326
31.42    379
31.44    409
31.46    349
31.48    413
31.5     391
31.52    361
31.54    337
31.56    303
31.58    364
31.6     434
31.62    462
31.64    518
31.66    455
31.68    432
31.7     395
31.72    312
31.74    223
31.76    178
31.78    209
31.8     236
31.82    351
31.84    480
31.86    468
31.88    453
31.9     366
31.92    349
31.94    332
31.96    370
31.98    447
32.0     492
32.02    536
32.04    539
32.06    461
32.08    423
32.1     387
32.12    467
32.14    491
32.16    514
32.18    573
32.2     593
32.22    560
32.24    592
32.26    571
32.28    528
32.3     546
32.32    559
32.34    521
32.36    594
32.38    598
32.4     528
32.42    541
32.44    536
32.46    445
32.48    444
32.5     422
32.52    425
32.54    487
32.56    597
32.58    590
32.6     518
32.62    556
32.64    495
32.66    462
32.68    501
32.7     455
32.72    520
32.74    564
32.76    595
32.78    637
32.8     617
32.82    662
32.84    689
32.86    702
32.88    681
32.9     656
32.92    641
32.94    642
32.96    604
32.98    598
33.0     585
33.02    571
33.04    585
33.06    605
33.08    597
33.1     593
33.12    623
33.14    696
33.16    728
33.18    773
33.2     796
33.22    886
33.24    940
33.26    1053
33.28    1063
33.3     1123
33.32    1214
33.34    1383
33.36    1639
33.38    1959
33.4     2379
33.42    2967
33.44    3564
33.46    4313
33.48    5099
33.5     6122
33.52    7182
33.54    8200
33.56    9063
33.58    9500
33.6     9481
33.62    9038
33.64    8172
33.66    7091
33.68    5961
33.7     4936
33.72    4044
33.74    3340
33.76    2787
33.78    2265
33.8     1888
33.82    1558
33.84    1347
33.86    1144
33.88    1015
33.9     926
33.92    822
33.94    830
33.96    810
33.98    812
34.0     826
34.02    823
34.04    884
34.06    843
34.08    829
34.1     755
34.12    646
34.14    627
34.16    517
34.18    499
34.2     446
34.22    444
34.24    589
34.26    683
34.28    778
34.3     780
34.32    736
34.34    677
34.36    571
34.38    544
34.4     510
34.42    513
34.44    626
34.46    656
34.48    694
34.5     630
34.52    568
34.54    479
34.56    441
34.58    480
34.6     580
34.62    646
34.64    739
34.66    808
34.68    811
34.7     772
34.72    742
34.74    623
34.76    632
34.78    642
34.8     736
34.82    881
34.84    1047
34.86    1183
34.88    1316
34.9     1488
34.92    1692
34.94    1971
34.96    2441
34.98    3117
35.0     4075
35.02    5303
35.04    6742
35.06    8116
35.08    9329
35.1     10044
35.12    10229
35.14    9740
35.16    8802
35.18    7403
35.2     5880
35.22    4461
35.24    3362
35.26    2483
35.28    1874
35.3     1527
35.32    1336
35.34    1211
35.36    1209
35.38    1096
35.4     1032
35.42    974
35.44    915
35.46    874
35.48    813
35.5     844
35.52    763
35.54    781
35.56    772
35.58    772
35.6     724
35.62    738
35.64    738
35.66    701
35.68    616
35.7     603
35.72    540
35.74    610
35.76    675
35.78    747
35.8     789
35.82    855
35.84    892
35.86    812
35.88    799
35.9     815
35.92    796
35.94    834
35.96    832
35.98    815
36.0     867
36.02    905
36.04    924
36.06    972
36.08    1050
36.1     1099
36.12    1215
36.14    1305
36.16    1448
36.18    1651
36.2     1901
36.22    2159
36.24    2570
36.26    3025
36.28    3661
36.3     4533
36.32    5729
36.34    7221
36.36    9255
36.38    11665
36.4     14374
36.42    17139
36.44    19606
36.46    21063
36.48    21506
36.5     20604
36.52    18592
36.54    15885
36.56    12870
36.58    9901
36.6     7529
36.62    5781
36.64    4547
36.66    3609
36.68    3003
36.7     2448
36.72    2063
36.74    1813
36.76    1583
36.78    1427
36.8     1390
36.82    1335
36.84    1351
36.86    1263
36.88    1166
36.9     1043
36.92    955
36.94    821
36.96    827
36.98    802
37.0     755
37.02    752
37.04    861
37.06    824
37.08    836
37.1     861
37.12    865
37.14    801
37.16    859
37.18    821
37.2     766
37.22    760
37.24    717
37.26    668
37.28    695
37.3     746
37.32    791
37.34    923
37.36    969
37.38    1005
37.4     1010
37.42    965
37.44    821
37.46    710
37.48    624
37.5     553
37.52    551
37.54    537
37.56    535
37.58    597
37.6     667
37.62    657
37.64    665
37.66    677
37.68    657
37.7     567
37.72    531
37.74    438
37.76    452
37.78    445
37.8     566
37.82    542
37.84    596
37.86    695
37.88    685
37.9     548
37.92    560
37.94    553
37.96    521
37.98    533
38.0     658
38.02    615
38.04    652
38.06    695
38.08    600
38.1     448
38.12    403
38.14    324
38.16    299
38.18    376
38.2     505
38.22    586
38.24    657
38.26    691
38.28    614
38.3     488
38.32    368
38.34    330
38.36    329
38.38    390
38.4     464
38.42    543
38.44    565
38.46    602
38.48    569
38.5     488
38.52    452
38.54    450
38.56    416
38.58    486
38.6     593
38.62    623
38.64    615
38.66    653
38.68    615
38.7     548
38.72    517
38.74    473
38.76    484
38.78    534
38.8     572
38.82    525
38.84    471
38.86    378
38.88    384
38.9     366
38.92    381
38.94    474
38.96    587
38.98    605
39.0     618
39.02    595
39.04    512
39.06    377
39.08    390
39.1     368
39.12    402
39.14    489
39.16    527
39.18    514
39.2     508
39.22    494
39.24    491
39.26    438
39.28    486
39.3     558
39.32    571
39.34    553
39.36    552
39.38    473
39.4     431
39.42    409
39.44    385
39.46    386
39.48    478
39.5     502
39.52    555
39.54    598
39.56    644
39.58    543
39.6     553
39.62    501
39.64    405
39.66    426
39.68    432
39.7     410
39.72    501
39.74    633
39.76    642
39.78    616
39.8     628
39.82    596
39.84    462
39.86    433
39.88    440
39.9     458
39.92    528
39.94    696
39.96    716
39.98    764
40.0     814
40.02    802
40.04    706
40.06    675
40.08    723
40.1     679
40.12    687
40.14    778
40.16    790
40.18    782
40.2     869
40.22    905
40.24    909
40.26    929
40.28    952
40.3     897
40.32    893
40.34    889
40.36    858
40.38    837
40.4     923
40.42    1008
40.44    1020
40.46    1049
40.48    1005
40.5     1004
40.52    939
40.54    830
40.56    761
40.58    715
40.6     739
40.62    813
40.64    908
40.66    991
40.68    1054
40.7     1190
40.72    1255
40.74    1247
40.76    1264
40.78    1266
40.8     1293
40.82    1292
40.84    1333
40.86    1295
40.88    1262
40.9     1317
40.92    1387
40.94    1442
40.96    1580
40.98    1731
41.0     1896
41.02    2034
41.04    2192
41.06    2355
41.08    2450
41.1     2602
41.12    2823
41.14    3042
41.16    3355
41.18    3702
41.2     4187
41.22    4783
41.24    5521
41.26    6381
41.28    7385
41.3     8671
41.32    10297
41.34    12262
41.36    14876
41.38    18251
41.4     22548
41.42    27976
41.44    34624
41.46    42232
41.48    50341
41.5     57856
41.52    63765
41.54    66942
41.56    66943
41.58    63696
41.6     57677
41.62    50033
41.64    41819
41.66    33961
41.68    27216
41.7     21670
41.72    17345
41.74    13957
41.76    11344
41.78    9313
41.8     7781
41.82    6665
41.84    5778
41.86    5104
41.88    4520
41.9     4080
41.92    3661
41.94    3332
41.96    3012
41.98    2761
42.0     2650
42.02    2492
42.04    2416
42.06    2318
42.08    2116
42.1     1997
42.12    1802
42.14    1623
42.16    1504
42.18    1460
42.2     1484
42.22    1401
42.24    1452
42.26    1389
42.28    1303
42.3     1205
42.32    1151
42.34    1103
42.36    1110
42.38    1128
42.4     1160
42.42    1150
42.44    1225
42.46    1134
42.48    1034
42.5     924
42.52    861
42.54    843
42.56    864
42.58    921
42.6     936
42.62    982
42.64    1011
42.66    983
42.68    959
42.7     949
42.72    985
42.74    1005
42.76    970
42.78    912
42.8     831
42.82    769
42.84    682
42.86    691
42.88    686
42.9     806
42.92    888
42.94    955
42.96    1016
42.98    1036
43.0     1034
43.02    935
43.04    826
43.06    747
43.08    634
43.1     633
43.12    576
43.14    584
43.16    599
43.18    622
43.2     643
43.22    638
43.24    716
43.26    752
43.28    763
43.3     787
43.32    802
43.34    792
43.36    772
43.38    731
43.4     666
43.42    633
43.44    626
43.46    614
43.48    614
43.5     616
43.52    677
43.54    728
43.56    707
43.58    654
43.6     631
43.62    594
43.64    559
43.66    559
43.68    614
43.7     685
43.72    722
43.74    741
43.76    657
43.78    619
43.8     615
43.82    535
43.84    472
43.86    447
43.88    539
43.9     594
43.92    568
43.94    562
43.96    557
43.98    588
44.0     601
44.02    574
44.04    550
44.06    613
44.08    658
44.1     649
44.12    627
44.14    670
44.16    712
44.18    689
44.2     744
44.22    794
44.24    804
44.26    818
44.28    764
44.3     708
44.32    597
44.34    555
44.36    499
44.38    465
44.4     575
44.42    646
44.44    636
44.46    648
44.48    661
44.5     638
44.52    531
44.54    525
44.56    532
44.58    569
44.6     597
44.62    604
44.64    650
44.66    721
44.68    751
44.7     720
44.72    744
44.74    747
44.76    702
44.78    615
44.8     604
44.82    615
44.84    671
44.86    778
44.88    862
44.9     1050
44.92    1202
44.94    1267
44.96    1394
44.98    1488
45.0     1620
45.02    1599
45.04    1568
45.06    1585
45.08    1473
45.1     1415
45.12    1261
45.14    1189
45.16    1144
45.18    1131
45.2     1114
45.22    1029
45.24    995
45.26    930
45.28    840
45.3     729
45.32    672
45.34    620
45.36    554
45.38    581
45.4     583
45.42    572
45.44    602
45.46    628
45.48    674
45.5     660
45.52    692
45.54    674
45.56    635
45.58    563
45.6     541
45.62    491
45.64    432
45.66    403
45.68    393
45.7     481
45.72    561
45.74    594
45.76    653
45.78    655
45.8     687
45.82    565
45.84    499
45.86    427
45.88    362
45.9     395
45.92    394
45.94    503
45.96    572
45.98    626
46.0     662
46.02    621
46.04    701
46.06    620
46.08    575
46.1     480
46.12    467
46.14    443
46.16    368
46.18    462
46.2     487
46.22    587
46.24    678
46.26    651
46.28    677
46.3     605
46.32    586
46.34    491
46.36    505
46.38    531
46.4     525
46.42    557
46.44    554
46.46    558
46.48    558
46.5     586
46.52    554
46.54    561
46.56    581
46.58    510
46.6     491
46.62    426
46.64    417
46.66    443
46.68    408
46.7     490
46.72    475
46.74    512
46.76    551
46.78    517
46.8     495
46.82    445
46.84    464
46.86    497
46.88    458
46.9     563
46.92    631
46.94    741
46.96    765
46.98    718
47.0     661
47.02    529
47.04    422
47.06    325
47.08    249
47.1     300
47.12    361
47.14    501
47.16    609
47.18    655
47.2     673
47.22    649
47.24    629
47.26    549
47.28    396
47.3     343
47.32    333
47.34    351
47.36    364
47.38    369
47.4     498
47.42    631
47.44    695
47.46    654
47.48    577
47.5     647
47.52    615
47.54    511
47.56    416
47.58    423
47.6     504
47.62    535
47.64    546
47.66    591
47.68    638
47.7     687
47.72    627
47.74    620
47.76    583
47.78    532
47.8     483
47.82    473
47.84    469
47.86    529
47.88    574
47.9     609
47.92    663
47.94    782
47.96    769
47.98    730
48.0     658
48.02    598
48.04    574
48.06    481
48.08    456
48.1     445
48.12    444
48.14    516
48.16    491
48.18    582
48.2     597
48.22    626
48.24    676
48.26    602
48.28    570
48.3     538
48.32    447
48.34    438
48.36    445
48.38    542
48.4     628
48.42    705
48.44    755
48.46    775
48.48    691
48.5     654
48.52    509
48.54    369
48.56    304
48.58    242
48.6     222
48.62    245
48.64    312
48.66    487
48.68    544
48.7     674
48.72    665
48.74    667
48.76    676
48.78    536
48.8     452
48.82    411
48.84    388
48.86    429
48.88    435
48.9     510
48.92    547
48.94    655
48.96    693
48.98    613
49.0     619
49.02    554
49.04    534
49.06    479
49.08    494
49.1     484
49.12    516
49.14    551
49.16    556
49.18    505
49.2     518
49.22    501
49.24    478
49.26    397
49.28    390
49.3     399
49.32    388
49.34    383
49.36    396
49.38    447
49.4     566
49.42    618
49.44    589
49.46    595
49.48    618
49.5     567
49.52    457
49.54    362
49.56    338
49.58    346
49.6     330
49.62    308
49.64    303
49.66    388
49.68    444
49.7     494
49.72    555
49.74    582
49.76    638
49.78    602
49.8     553
49.82    492
49.84    431
49.86    370
49.88    349
49.9     380
49.92    358
49.94    381
49.96    432
49.98    504
50.0     587
50.02    588
50.04    607
50.06    612
50.08    682
50.1     670
50.12    605
50.14    565
50.16    511
50.18    424
50.2     383
50.22    315
50.24    351
50.26    356
50.28    418
50.3     454
50.32    508
50.34    514
50.36    505
50.38    478
50.4     581
50.42    582
50.44    574
50.46    482
50.48    381
50.5     328
50.52    282
50.54    215
50.56    217
50.58    265
50.6     425
50.62    549
50.64    655
50.66    664
50.68    654
50.7     703
50.72    621
50.74    515
50.76    388
50.78    288
50.8     316
50.82    382
50.84    391
50.86    420
50.88    518
50.9     648
50.92    665
50.94    669
50.96    573
50.98    496
51.0     440
51.02    404
51.04    323
51.06    337
51.08    347
51.1     450
51.12    507
51.14    532
51.16    452
51.18    444
51.2     438
51.22    453
51.24    366
51.26    361
51.28    426
51.3     490
51.32    461
51.34    446
51.36    432
51.38    521
51.4     581
51.42    564
51.44    512
51.46    587
51.48    652
51.5     574
51.52    475
51.54    454
51.56    423
51.58    438
51.6     443
51.62    399
51.64    475
51.66    587
51.68    594
51.7     599
51.72    594
51.74    573
51.76    564
51.78    527
51.8     527
51.82    512
51.84    566
51.86    571
51.88    563
51.9     583
51.92    581
51.94    563
51.96    567
51.98    509
52.0     558
52.02    579
52.04    578
52.06    589
52.08    608
52.1     611
52.12    650
52.14    686
52.16    673
52.18    662
52.2     680
52.22    724
52.24    716
52.26    702
52.28    654
52.3     639
52.32    597
52.34    569
52.36    504
52.38    476
52.4     470
52.42    559
52.44    584
52.46    610
52.48    630
52.5     686
52.52    693
52.54    641
52.56    602
52.58    645
52.6     679
52.62    725
52.64    737
52.66    683
52.68    617
52.7     600
52.72    552
52.74    381
52.76    373
52.78    407
52.8     469
52.82    526
52.84    598
52.86    634
52.88    726
52.9     807
52.92    842
52.94    809
52.96    855
52.98    828
53.0     856
53.02    845
53.04    876
53.06    906
53.08    930
53.1     954
53.12    1005
53.14    1088
53.16    1146
53.18    1190
53.2     1333
53.22    1480
53.24    1667
53.26    1825
53.28    2016
53.3     2334
53.32    2671
53.34    3022
53.36    3291
53.38    3636
53.4     4108
53.42    4569
53.44    4966
53.46    5267
53.48    5495
53.5     5592
53.52    5443
53.54    5066
53.56    4481
53.58    3959
53.6     3521
53.62    3071
53.64    2622
53.66    2283
53.68    2056
53.7     1878
53.72    1661
53.74    1435
53.76    1242
53.78    1119
53.8     1114
53.82    1031
53.84    969
53.86    969
53.88    984
53.9     972
53.92    940
53.94    876
53.96    787
53.98    671
54.0     620
54.02    563
54.04    556
54.06    515
54.08    552
54.1     604
54.12    625
54.14    647
54.16    630
54.18    578
54.2     553
54.22    552
54.24    548
54.26    542
54.28    554
54.3     573
54.32    552
54.34    610
54.36    633
54.38    604
54.4     579
54.42    553
54.44    583
54.46    613
54.48    586
54.5     627
54.52    688
54.54    762
54.56    779
54.58    737
54.6     647
54.62    559
54.64    534
54.66    460
54.68    409
54.7     376
54.72    335
54.74    305
54.76    322
54.78    380
54.8     445
54.82    507
54.84    552
54.86    563
54.88    645
54.9     648
54.92    561
54.94    464
54.96    450
54.98    428
55.0     400
55.02    338
55.04    300
55.06    319
55.08    426
55.1     443
55.12    472
55.14    477
55.16    554
55.18    617
55.2     622
55.22    568
55.24    564
55.26    537
55.28    522
55.3     455
55.32    432
55.34    420
55.36    496
55.38    589
55.4     585
55.42    584
55.44    625
55.46    628
55.48    632
55.5     546
55.52    442
55.54    405
55.56    439
55.58    450
55.6     448
55.62    495
55.64    549
55.66    608
55.68    643
55.7     622
55.72    595
55.74    541
55.76    529
55.78    483
55.8     387
55.82    377
55.84    354
55.86    403
55.88    425
55.9     527
55.92    552
55.94    529
55.96    557
55.98    573
56.0     517
56.02    540
56.04    499
56.06    532
56.08    531
56.1     543
56.12    457
56.14    399
56.16    415
56.18    437
56.2     449
56.22    509
56.24    562
56.26    682
56.28    712
56.3     729
56.32    696
56.34    680
56.36    640
56.38    530
56.4     436
56.42    401
56.44    423
56.46    461
56.48    508
56.5     606
56.52    715
56.54    835
56.56    810
56.58    737
56.6     708
56.62    702
56.64    644
56.66    510
56.68    464
56.7     388
56.72    424
56.74    479
56.76    435
56.78    478
56.8     632
56.82    706
56.84    670
56.86    647
56.88    661
56.9     650
56.92    647
56.94    631
56.96    526
56.98    512
57.0     555
57.02    503
57.04    434
57.06    419
57.08    427
57.1     419
57.12    484
57.14    569
57.16    579
57.18    595
57.2     692
57.22    745
57.24    767
57.26    806
57.28    797
57.3     758
57.32    835
57.34    828
57.36    738
57.38    634
57.4     682
57.42    638
57.44    643
57.46    670
57.48    618
57.5     635
57.52    677
57.54    770
57.56    783
57.58    842
57.6     908
57.62    898
57.64    974
57.66    964
57.68    909
57.7     946
57.72    948
57.74    1015
57.76    1036
57.78    1120
57.8     1145
57.82    1211
57.84    1373
57.86    1484
57.88    1634
57.9     1735
57.92    1839
57.94    1982
57.96    2167
57.98    2305
58.0     2439
58.02    2709
58.04    3043
58.06    3483
58.08    3992
58.1     4515
58.12    5135
58.14    5875
58.16    6726
58.18    7527
58.2     8530
58.22    9522
58.24    10406
58.26    11299
58.28    11901
58.3     12227
58.32    12159
58.34    11798
58.36    11063
58.38    10104
58.4     9164
58.42    8032
58.44    6991
58.46    6119
58.48    5342
58.5     4689
58.52    4183
58.54    3690
58.56    3217
58.58    2914
58.6     2659
58.62    2379
58.64    2114
58.66    1913
58.68    1728
58.7     1577
58.72    1512
58.74    1408
58.76    1318
58.78    1243
58.8     1252
58.82    1260
58.84    1177
58.86    1142
58.88    1066
58.9     1019
58.92    1015
58.94    1026
58.96    949
58.98    834
59.0     780
59.02    767
59.04    693
59.06    723
59.08    633
59.1     575
59.12    571
59.14    617
59.16    616
59.18    596
59.2     635
59.22    751
59.24    814
59.26    887
59.28    846
59.3     812
59.32    744
59.34    752
59.36    639
59.38    575
59.4     560
59.42    575
59.44    590
59.46    581
59.48    617
59.5     591
59.52    564
59.54    598
59.56    505
59.58    469
59.6     452
59.62    491
59.64    508
59.66    494
59.68    575
59.7     548
59.72    589
59.74    643
59.76    632
59.78    634
59.8     652
59.82    680
59.84    628
59.86    578
59.88    572
59.9     508
59.92    536
59.94    575
59.96    562
59.98    604
60.0     651
60.02    681
60.04    671
60.06    639
60.08    572
60.1     558
60.12    565
60.14    557
60.16    510
60.18    524
60.2     520
60.22    529
60.24    554
60.26    556
60.28    514
60.3     526
60.32    549
60.34    519
60.36    574
60.38    585
60.4     616
60.42    652
60.44    685
60.46    729
60.48    663
60.5     632
60.52    608
60.54    508
60.56    475
60.58    401
60.6     379
60.62    355
60.64    444
60.66    499
60.68    498
60.7     546
60.72    616
60.74    626
60.76    631
60.78    667
60.8     631
60.82    592
60.84    585
60.86    502
60.88    427
60.9     377
60.92    359
60.94    353
60.96    391
60.98    489
61.0     559
61.02    691
61.04    790
61.06    811
61.08    789
61.1     751
61.12    613
61.14    540
61.16    455
61.18    395
61.2     396
61.22    474
61.24    502
61.26    497
61.28    557
61.3     614
61.32    568
61.34    660
61.36    720
61.38    745
61.4     764
61.42    844
61.44    833
61.46    858
61.48    864
61.5     840
61.52    793
61.54    832
61.56    835
61.58    772
61.6     718
61.62    719
61.64    724
61.66    770
61.68    838
61.7     943
61.72    1117
61.74    1256
61.76    1477
61.78    1675
61.8     1810
61.82    1952
61.84    2191
61.86    2422
61.88    2692
61.9     3076
61.92    3584
61.94    4178
61.96    5044
61.98    6137
62.0     7300
62.02    8693
62.04    10320
62.06    11900
62.08    13397
62.1     14572
62.12    15234
62.14    15194
62.16    14613
62.18    13607
62.2     12157
62.22    10560
62.24    8986
62.26    7570
62.28    6332
62.3     5260
62.32    4389
62.34    3660
62.36    3107
62.38    2699
62.4     2389
62.42    2122
62.44    1887
62.46    1786
62.48    1599
62.5     1424
62.52    1254
62.54    1228
62.56    1131
62.58    1063
62.6     1000
62.62    981
62.64    913
62.66    890
62.68    869
62.7     798
62.72    699
62.74    749
62.76    730
62.78    756
62.8     740
62.82    724
62.84    717
62.86    728
62.88    772
62.9     748
62.92    661
62.94    656
62.96    610
62.98    616
63.0     542
63.02    512
63.04    543
63.06    557
63.08    580
63.1     608
63.12    653
63.14    661
63.16    672
63.18    719
63.2     683
63.22    715
63.24    672
63.26    650
63.28    636
63.3     615
63.32    633
63.34    585
63.36    525
63.38    530
63.4     510
63.42    548
63.44    574
63.46    629
63.48    621
63.5     596
63.52    642
63.54    657
63.56    634
63.58    650
63.6     653
63.62    645
63.64    688
63.66    702
63.68    633
63.7     560
63.72    588
63.74    608
63.76    567
63.78    557
63.8     580
63.82    569
63.84    573
63.86    548
63.88    498
63.9     483
63.92    503
63.94    561
63.96    509
63.98    551
64.0     620
64.02    664
64.04    715
64.06    714
64.08    690
64.1     692
64.12    605
64.14    637
64.16    554
64.18    510
64.2     536
64.22    544
64.24    596
64.26    639
64.28    676
64.3     786
64.32    779
64.34    895
64.36    891
64.38    837
64.4     891
64.42    831
64.44    809
64.46    837
64.48    857
64.5     966
64.52    959
64.54    1027
64.56    1060
64.58    1133
64.6     1375
64.62    1574
64.64    1918
64.66    2244
64.68    2627
64.7     3056
64.72    3365
64.74    3646
64.76    3885
64.78    3948
64.8     3910
64.82    3735
64.84    3542
64.86    3265
64.88    2967
64.9     2657
64.92    2361
64.94    2124
64.96    1992
64.98    1795
65.0     1620
65.02    1506
65.04    1395
65.06    1323
65.08    1196
65.1     1075
65.12    950
65.14    849
65.16    805
65.18    783
65.2     723
65.22    690
65.24    657
65.26    671
65.28    633
65.3     590
65.32    637
65.34    623
65.36    674
65.38    705
65.4     680
65.42    640
65.44    647
65.46    644
65.48    578
65.5     531
65.52    583
65.54    517
65.56    533
65.58    531
65.6     534
65.62    508
65.64    545
65.66    618
65.68    599
65.7     617
65.72    618
65.74    581
65.76    573
65.78    574
65.8     523
65.82    447
65.84    419
65.86    426
65.88    380
65.9     429
65.92    438
65.94    457
65.96    523
65.98    553
66.0     561
66.02    530
66.04    494
66.06    482
66.08    468
66.1     489
66.12    476
66.14    466
66.16    461
66.18    380
66.2     380
66.22    364
66.24    377
66.26    417
66.28    430
66.3     445
66.32    428
66.34    477
66.36    506
66.38    498
66.4     525
66.42    558
66.44    551
66.46    543
66.48    539
66.5     445
66.52    422
66.54    414
66.56    382
66.58    382
66.6     345
66.62    320
66.64    328
66.66    351
66.68    458
66.7     409
66.72    496
66.74    517
66.76    490
66.78    458
66.8     399
66.82    340
66.84    390
66.86    337
66.88    404
66.9     426
66.92    505
66.94    552
66.96    574
66.98    559
67.0     590
67.02    570
67.04    604
67.06    581
67.08    635
67.1     666
67.12    635
67.14    604
67.16    644
67.18    584
67.2     535
67.22    452
67.24    447
67.26    419
67.28    383
67.3     391
67.32    389
67.34    352
67.36    355
67.38    356
67.4     342
67.42    358
67.44    352
67.46    415
67.48    500
67.5     621
67.52    677
67.54    665
67.56    673
67.58    737
67.6     687
67.62    603
67.64    510
67.66    427
67.68    393
67.7     335
67.72    358
67.74    392
67.76    449
67.78    495
67.8     527
67.82    523
67.84    552
67.86    513
67.88    567
67.9     599
67.92    661
67.94    711
67.96    700
67.98    617
68.0     554
68.02    422
68.04    380
68.06    345
68.08    352
68.1     381
68.12    403
68.14    473
68.16    546
68.18    619
68.2     642
68.22    659
68.24    748
68.26    770
68.28    751
68.3     741
68.32    735
68.34    664
68.36    661
68.38    614
68.4     565
68.42    560
68.44    600
68.46    638
68.48    654
68.5     724
68.52    811
68.54    786
68.56    792
68.58    796
68.6     803
68.62    787
68.64    810
68.66    861
68.68    872
68.7     891
68.72    965
68.74    1054
68.76    1174
68.78    1338
68.8     1462
68.82    1631
68.84    1838
68.86    2014
68.88    2142
68.9     2284
68.92    2506
68.94    2725
68.96    2901
68.98    3030
69.0     3115
69.02    3129
69.04    3138
69.06    3053
69.08    2930
69.1     2718
69.12    2556
69.14    2356
69.16    2149
69.18    1954
69.2     1706
69.22    1527
69.24    1419
69.26    1312
69.28    1207
69.3     1089
69.32    1077
69.34    1028
69.36    1038
69.38    982
69.4     896
69.42    860
69.44    817
69.46    742
69.48    742
69.5     771
69.52    783
69.54    789
69.56    782
69.58    719
69.6     662
69.62    612
69.64    603
69.66    571
69.68    579
69.7     602
69.72    644
69.74    675
69.76    670
69.78    652
69.8     625
69.82    637
69.84    613
69.86    582
69.88    557
69.9     592
69.92    575
69.94    613
69.96    632
69.98    614
70.0     600
70.02    519
70.04    507
70.06    537
70.08    593
70.1     660
70.12    657
70.14    719
70.16    733
70.18    775
70.2     710
70.22    645
70.24    644
70.26    615
70.28    598
70.3     592
70.32    583
70.34    584
70.36    637
70.38    712
70.4     774
70.42    871
70.44    951
70.46    1046
70.48    1142
70.5     1272
70.52    1389
70.54    1578
70.56    1700
70.58    1763
70.6     1809
70.62    1812
70.64    1783
70.66    1767
70.68    1721
70.7     1651
70.72    1513
70.74    1450
70.76    1345
70.78    1254
70.8     1167
70.82    1152
70.84    1071
70.86    1078
70.88    1057
70.9     968
70.92    891
70.94    878
70.96    848
70.98    773
71.0     726
71.02    736
71.04    650
71.06    637
71.08    574
71.1     575
71.12    613
71.14    719
71.16    725
71.18    727
71.2     763
71.22    771
71.24    741
71.26    688
71.28    613
71.3     552
71.32    504
71.34    493
71.36    401
71.38    360
71.4     353
71.42    412
71.44    460
71.46    530
71.48    594
71.5     631
71.52    683
71.54    670
71.56    665
71.58    667
71.6     640
71.62    663
71.64    659
71.66    683
71.68    689
71.7     695
71.72    677
71.74    631
71.76    613
71.78    609
71.8     566
71.82    520
71.84    528
71.86    569
71.88    619
71.9     679
71.92    695
71.94    723
71.96    785
71.98    796
72.0     810
72.02    823
72.04    865
72.06    912
72.08    984
72.1     969
72.12    1006
72.14    1043
72.16    1060
72.18    1034
72.2     1117
72.22    1160
72.24    1200
72.26    1287
72.28    1415
72.3     1518
72.32    1725
72.34    1871
72.36    2091
72.38    2327
72.4     2611
72.42    2891
72.44    3235
72.46    3580
72.48    3861
72.5     4082
72.52    4227
72.54    4270
72.56    4220
72.58    4093
72.6     3955
72.62    3691
72.64    3466
72.66    3149
72.68    2759
72.7     2465
72.72    2184
72.74    1921
72.76    1607
72.78    1457
72.8     1347
72.82    1205
72.84    1174
72.86    1088
72.88    1003
72.9     1038
72.92    1002
72.94    987
72.96    930
72.98    970
73.0     956
73.02    877
73.04    826
73.06    795
73.08    733
73.1     765
73.12    771
73.14    807
73.16    821
73.18    850
73.2     860
73.22    800
73.24    864
73.26    882
73.28    880
73.3     935
73.32    988
73.34    984
73.36    1023
73.38    1084
73.4     1140
73.42    1135
73.44    1198
73.46    1139
73.48    1090
73.5     1118
73.52    1076
73.54    961
73.56    899
73.58    801
73.6     674
73.62    619
73.64    547
73.66    515
73.68    514
73.7     560
73.72    599
73.74    616
73.76    692
73.78    688
73.8     752
73.82    839
73.84    855
73.86    904
73.88    923
73.9     879
73.92    911
73.94    874
73.96    873
73.98    825
74.0     912
74.02    939
74.04    974
74.06    1103
74.08    1248
74.1     1337
74.12    1449
74.14    1533
74.16    1680
74.18    1859
74.2     2019
74.22    2089
74.24    2099
74.26    2166
74.28    2151
74.3     2099
74.32    2052
74.34    1959
74.36    1940
74.38    1849
74.4     1735
74.42    1589
74.44    1416
74.46    1320
74.48    1180
74.5     1172
74.52    1093
74.54    1054
74.56    1052
74.58    1016
74.6     1080
74.62    1113
74.64    1135
74.66    1201
74.68    1264
74.7     1388
74.72    1368
74.74    1429
74.76    1430
74.78    1456
74.8     1516
74.82    1496
74.84    1522
74.86    1653
74.88    1722
74.9     1747
74.92    1709
74.94    1710
74.96    1662
74.98    1667
75.0     1621
75.02    1543
75.04    1538
75.06    1523
75.08    1363
75.1     1211
75.12    1064
75.14    997
75.16    927
75.18    963
75.2     896
75.22    830
75.24    796
75.26    705
75.28    622
75.3     559
75.32    593
75.34    614
75.36    697
75.38    755
75.4     747
75.42    724
75.44    767
75.46    693
75.48    625
75.5     546
75.52    525
75.54    441
75.56    426
75.58    339
75.6     347
75.62    384
75.64    443
75.66    434
75.68    490
75.7     581
75.72    668
75.74    708
75.76    715
75.78    722
75.8     744
75.82    714
75.84    611
75.86    551
75.88    543
75.9     507
75.92    442
75.94    411
75.96    443
75.98    481
76.0     473
76.02    467
76.04    475
76.06    510
76.08    523
76.1     558
76.12    539
76.14    572
76.16    586
76.18    504
76.2     454
76.22    441
76.24    425
76.26    385
76.28    372
76.3     419
76.32    368
76.34    349
76.36    347
76.38    393
76.4     483
76.42    555
76.44    595
76.46    608
76.48    670
76.5     701
76.52    659
76.54    602
76.56    678
76.58    691
76.6     631
76.62    548
76.64    473
76.66    397
76.68    406
76.7     374
76.72    352
76.74    389
76.76    500
76.78    506
76.8     542
76.82    607
76.84    663
76.86    702
76.88    728
76.9     707
76.92    751
76.94    779
76.96    785
76.98    802
77.0     836
77.02    845
77.04    820
77.06    779
77.08    711
77.1     704
77.12    766
77.14    860
77.16    1005
77.18    1147
77.2     1246
77.22    1335
77.24    1396
77.26    1470
77.28    1526
77.3     1726
77.32    1884
77.34    2130
77.36    2371
77.38    2596
77.4     2848
77.42    3124
77.44    3408
77.46    3724
77.48    3961
77.5     4339
77.52    4523
77.54    4648
77.56    4689
77.58    4615
77.6     4504
77.62    4247
77.64    3998
77.66    3645
77.68    3277
77.7     3029
77.72    2704
77.74    2366
77.76    2141
77.78    1904
77.8     1748
77.82    1556
77.84    1428
77.86    1253
77.88    1151
77.9     1098
77.92    1040
77.94    947
77.96    935
77.98    954
78.0     958
78.02    880
78.04    780
78.06    740
78.08    700
78.1     766
78.12    761
78.14    748
78.16    754
78.18    761
78.2     707
78.22    570
78.24    473
78.26    481
78.28    486
78.3     515
78.32    532
78.34    558
78.36    573
78.38    560
78.4     593
78.42    564
78.44    578
78.46    631
78.48    654
78.5     592
78.52    576
78.54    523
78.56    479
78.58    438
78.6     454
78.62    437
78.64    403
78.66    434
78.68    453
78.7     470
78.72    453
78.74    444
78.76    449
78.78    478
78.8     482
78.82    437
78.84    416
78.86    467
78.88    484
78.9     539
78.92    485
78.94    454
78.96    465
78.98    463
79.0     435
79.02    431
79.04    455
79.06    562
79.08    588
79.1     617
79.12    542
79.14    514
79.16    499
79.18    469
79.2     404
79.22    415
79.24    396
79.26    439
79.28    449
79.3     411
79.32    389
79.34    397
79.36    418
79.38    481
79.4     446
79.42    441
79.44    454
79.46    421
79.48    482
79.5     446
79.52    475
79.54    441
79.56    510
79.58    559
79.6     497
79.62    440
79.64    489
79.66    482
79.68    470
79.7     441
79.72    424
79.74    401
79.76    422
79.78    429
79.8     387
79.82    410
79.84    481
79.86    503
79.88    448
79.9     501
79.92    492
79.94    532
79.96    565
79.98    650
80.0     666
80.02    783
80.04    843
80.06    803
80.08    768
80.1     728
80.12    715
80.14    674
80.16    669
80.18    620
80.2     566
80.22    562
80.24    555
80.26    452
80.28    403
80.3     445
80.32    498
80.34    503
80.36    487
80.38    447
80.4     395
80.42    405
80.44    458
80.46    454
80.48    477
80.5     551
80.52    589
80.54    546
80.56    489
80.58    431
80.6     359
80.62    324
80.64    352
80.66    337
80.68    373
80.7     412
80.72    433
80.74    383
80.76    365
80.78    432
80.8     431
80.82    417
80.84    469
80.86    501
80.88    549
80.9     605
80.92    531
80.94    497
80.96    454
80.98    527
81.0     500
81.02    446
81.04    490
81.06    510
81.08    550
81.1     569
81.12    520
81.14    510
81.16    546
81.18    536
81.2     516
81.22    461
81.24    449
81.26    404
81.28    402
81.3     366
81.32    353
81.34    361
81.36    372
81.38    369
81.4     393
81.42    406
81.44    458
81.46    479
81.48    495
81.5     492
81.52    509
81.54    490
81.56    417
81.58    425
81.6     407
81.62    445
81.64    471
81.66    433
81.68    403
81.7     400
81.72    508
81.74    507
81.76    471
81.78    470
81.8     470
81.82    472
81.84    457
81.86    409
81.88    359
81.9     375
81.92    443
81.94    414
81.96    416
81.98    403
82.0     396
82.02    380
82.04    411
82.06    367
82.08    301
82.1     315
82.12    281
82.14    288
82.16    312
82.18    350
82.2     343
82.22    402
82.24    437
82.26    414
82.28    442
82.3     434
82.32    428
82.34    452
82.36    523
82.38    559
82.4     566
82.42    579
82.44    541
82.46    515
82.48    532
82.5     481
82.52    464
82.54    425
82.56    493
82.58    460
82.6     428
82.62    338
82.64    290
82.66    293
82.68    262
82.7     237
82.72    256
82.74    206
82.76    311
82.78    395
82.8     477
82.82    499
82.84    509
82.86    484
82.88    467
82.9     446
82.92    424
82.94    393
82.96    489
82.98    629
83.0     657
83.02    565
83.04    528
83.06    409
83.08    396
83.1     295
83.12    237
83.14    315
83.16    410
83.18    495
83.2     518
83.22    500
83.24    492
83.26    477
83.28    512
83.3     446
83.32    447
83.34    455
83.36    478
83.38    494
83.4     504
83.42    497
83.44    441
83.46    508
83.48    607
83.5     642
83.52    674
83.54    604
83.56    582
83.58    517
83.6     417
83.62    319
83.64    222
83.66    221
83.68    308
83.7     367
83.72    402
83.74    388
83.76    444
83.78    404
83.8     438
83.82    464
83.84    497
83.86    538
83.88    618
83.9     648
83.92    672
83.94    624
83.96    522
83.98    412
84.0     417
84.02    312
84.04    233
84.06    209
84.08    206
84.1     219
84.12    288
84.14    316
84.16    322
84.18    367
84.2     428
84.22    418
84.24    431
84.26    461
84.28    469
84.3     479
84.32    432
84.34    439
84.36    464
84.38    401
84.4     464
84.42    483
84.44    496
84.46    517
84.48    563
84.5     544
84.52    470
84.54    465
84.56    434
84.58    370
84.6     429
84.62    372
84.64    472
84.66    472
84.68    555
84.7     584
84.72    644
84.74    597
84.76    586
84.78    569
84.8     518
84.82    417
84.84    457
84.86    427
84.88    504
84.9     524
84.92    579
84.94    529
84.96    546
84.98    478
85.0     433
85.02    418
85.04    396
85.06    440
85.08    495
85.1     489
85.12    490
85.14    505
85.16    473
85.18    399
85.2     381
85.22    449
85.24    487
85.26    571
85.28    625
85.3     647
85.32    624
85.34    594
85.36    550
85.38    467
85.4     350
85.42    393
85.44    395
85.46    446
85.48    457
85.5     440
85.52    388
85.54    384
85.56    417
85.58    422
85.6     386
85.62    398
85.64    421
85.66    509
85.68    496
85.7     483
85.72    498
85.74    501
85.76    468
85.78    543
85.8     600
85.82    613
85.84    607
85.86    642
85.88    618
85.9     584
85.92    530
85.94    496
85.96    472
85.98    495
86.0     516
86.02    481
86.04    432
86.06    410
86.08    377
86.1     320
86.12    349
86.14    437
86.16    501
86.18    557
86.2     662
86.22    764
86.24    801
86.26    812
86.28    831
86.3     881
86.32    996
86.34    1059
86.36    1095
86.38    1152
86.4     1224
86.42    1253
86.44    1264
86.46    1260
86.48    1229
86.5     1154
86.52    1041
86.54    920
86.56    791
86.58    695
86.6     595
86.62    543
86.64    604
86.66    642
86.68    678
86.7     619
86.72    593
86.74    593
86.76    593
86.78    605
86.8     634
86.82    696
86.84    780
86.86    814
86.88    815
86.9     746
86.92    698
86.94    639
86.96    548
86.98    534
87.0     506
87.02    543
87.04    529
87.06    539
87.08    547
87.1     515
87.12    519
87.14    490
87.16    473
87.18    453
87.2     430
87.22    441
87.24    454
87.26    533
87.28    504
87.3     479
87.32    494
87.34    524
87.36    526
87.38    499
87.4     546
87.42    548
87.44    595
87.46    598
87.48    508
87.5     461
87.52    394
87.54    384
87.56    382
87.58    425
87.6     475
87.62    524
87.64    548
87.66    541
87.68    524
87.7     536
87.72    535
87.74    537
87.76    514
87.78    545
87.8     572
87.82    576
87.84    551
87.86    547
87.88    512
87.9     523
87.92    487
87.94    442
87.96    425
87.98    426
88.0     409
88.02    365
88.04    361
88.06    310
88.08    266
88.1     285
88.12    324
88.14    374
88.16    420
88.18    399
88.2     422
88.22    459
88.24    480
88.26    421
88.28    435
88.3     460
88.32    423
88.34    376
88.36    404
88.38    313
88.4     351
88.42    411
88.44    433
88.46    481
88.48    527
88.5     579
88.52    477
88.54    457
88.56    438
88.58    332
88.6     394
88.62    464
88.64    502
88.66    639
88.68    666
88.7     631
88.72    557
88.74    514
88.76    438
88.78    420
88.8     474
88.82    503
88.84    540
88.86    575
88.88    499
88.9     422
88.92    492
88.94    420
88.96    427
88.98    542
89.0     575
89.02    605
89.04    655
89.06    634
89.08    575
89.1     513
89.12    475
89.14    386
89.16    428
89.18    474
89.2     409
89.22    422
89.24    420
89.26    358
89.28    340
89.3     311
89.32    261
89.34    272
89.36    346
89.38    374
89.4     389
89.42    410
89.44    390
89.46    399
89.48    516
89.5     543
89.52    585
89.54    643
89.56    683
89.58    659
89.6     673
89.62    622
89.64    588
89.66    583
89.68    577
89.7     533
89.72    602
89.74    553
89.76    521
89.78    579
89.8     603
89.82    603
89.84    613
89.86    573
89.88    541
89.9     561
89.92    552
89.94    655
89.96    692
89.98    710
90.0     689
