?
5.0      534
5.02     534
5.04     692
5.06     684
5.08     724
5.1      681
5.12     689
5.14     693
5.16     701
5.18     692
5.2      695
5.22     712
5.24     770
5.26     789
5.28     787
5.3      797
5.32     795
5.34     782
5.36     790
5.38     764
5.4      760
5.42     739
5.44     750
5.46     750
5.48     733
5.5      788
5.52     752
5.54     750
5.56     773
5.58     770
5.6      759
5.62     765
5.64     790
5.66     776
5.68     818
5.7      841
5.72     797
5.74     801
5.76     765
5.78     777
5.8      774
5.82     835
5.84     830
5.86     849
5.88     885
5.9      878
5.92     884
5.94     883
5.96     890
5.98     891
6.0      867
6.02     896
6.04     821
6.06     843
6.08     829
6.1      850
6.12     834
6.14     851
6.16     837
6.18     837
6.2      879
6.22     894
6.24     882
6.26     902
6.28     923
6.3      922
6.32     880
6.34     881
6.36     823
6.38     848
6.4      868
6.42     899
6.44     919
6.46     939
6.48     928
6.5      920
6.52     884
6.54     866
6.56     815
6.58     804
6.6      785
6.62     815
6.64     819
6.66     843
6.68     825
6.7      848
6.72     827
6.74     851
6.76     865
6.78     839
6.8      836
6.82     800
6.84     799
6.86     743
6.88     725
6.9      765
6.92     774
6.94     769
6.96     823
6.98     817
7.0      893
7.02     842
7.04     868
7.06     810
7.08     882
7.1      883
7.12     876
7.14     829
7.16     896
7.18     885
7.2      962
7.22     903
7.24     912
7.26     888
7.28     915
7.3      904
7.32     872
7.34     917
7.36     865
7.38     868
7.4      884
7.42     839
7.44     806
7.46     786
7.48     774
7.5      816
7.52     775
7.54     845
7.56     780
7.58     857
7.6      884
7.62     917
7.64     898
7.66     874
7.68     845
7.7      816
7.72     807
7.74     818
7.76     818
7.78     813
7.8      813
7.82     821
7.84     811
7.86     775
7.88     726
7.9      712
7.92     747
7.94     799
7.96     794
7.98     769
8.0      846
8.02     822
8.04     881
8.06     840
8.08     779
8.1      761
8.12     751
8.14     794
8.16     702
8.18     708
8.2      786
8.22     739
8.24     854
8.26     836
8.28     855
8.3      903
8.32     915
8.34     883
8.36     797
8.38     786
8.4      766
8.42     753
8.44     765
8.46     798
8.48     839
8.5      855
8.52     816
8.54     800
8.56     769
8.58     744
8.6      743
8.62     769
8.64     754
8.66     790
8.68     801
8.7      783
8.72     807
8.74     812
8.76     804
8.78     793
8.8      809
8.82     789
8.84     713
8.86     710
8.88     704
8.9      684
8.92     739
8.94     719
8.96     849
8.98     842
9.0      851
9.02     879
9.04     892
9.06     898
9.08     886
9.1      848
9.12     815
9.14     771
9.16     826
9.18     686
9.2      671
9.22     682
9.24     696
9.26     689
9.28     708
9.3      744
9.32     698
9.34     737
9.36     745
9.38     729
9.4      762
9.42     732
9.44     699
9.46     659
9.48     630
9.5      629
9.52     616
9.54     668
9.56     684
9.58     738
9.6      761
9.62     752
9.64     736
9.66     659
9.68     640
9.7      644
9.72     718
9.74     724
9.76     747
9.78     788
9.8      786
9.82     804
9.84     812
9.86     734
9.88     744
9.9      754
9.92     761
9.94     759
9.96     762
9.98     756
10.0     723
10.02    689
10.04    664
10.06    627
10.08    644
10.1     677
10.12    682
10.14    687
10.16    677
10.18    702
10.2     662
10.22    653
10.24    686
10.26    720
10.28    715
10.3     718
10.32    683
10.34    654
10.36    668
10.38    657
10.4     618
10.42    632
10.44    658
10.46    683
10.48    615
10.5     665
10.52    651
10.54    678
10.56    707
10.58    691
10.6     733
10.62    747
10.64    751
10.66    767
10.68    718
10.7     744
10.72    712
10.74    702
10.76    688
10.78    703
10.8     720
10.82    733
10.84    751
10.86    739
10.88    708
10.9     719
10.92    720
10.94    733
10.96    747
10.98    781
11.0     774
11.02    831
11.04    834
11.06    792
11.08    767
11.1     765
11.12    746
11.14    767
11.16    751
11.18    747
11.2     815
11.22    853
11.24    826
11.26    824
11.28    765
11.3     823
11.32    805
11.34    791
11.36    740
11.38    762
11.4     818
11.42    829
11.44    807
11.46    794
11.48    779
11.5     848
11.52    833
11.54    840
11.56    846
11.58    876
11.6     891
11.62    888
11.64    869
11.66    830
11.68    846
11.7     842
11.72    822
11.74    856
11.76    887
11.78    878
11.8     885
11.82    848
11.84    836
11.86    812
11.88    821
11.9     800
11.92    799
11.94    871
11.96    913
11.98    930
12.0     946
12.02    937
12.04    985
12.06    1036
12.08    1030
12.1     1006
12.12    1015
12.14    1005
12.16    1010
12.18    958
12.2     877
12.22    880
12.24    923
12.26    916
12.28    866
12.3     907
12.32    944
12.34    941
12.36    976
12.38    975
12.4     976
12.42    1011
12.44    990
12.46    927
12.48    924
12.5     978
12.52    930
12.54    910
12.56    938
12.58    964
12.6     978
12.62    976
12.64    944
12.66    922
12.68    964
12.7     953
12.72    977
12.74    966
12.76    995
12.78    1018
12.8     1077
12.82    1106
12.84    1060
12.86    1064
12.88    1070
12.9     1023
12.92    1061
12.94    1003
12.96    986
12.98    1013
13.0     1034
13.02    1031
13.04    1005
13.06    1059
13.08    1061
13.1     1026
13.12    1063
13.14    1091
13.16    1017
13.18    971
13.2     965
13.22    1022
13.24    1010
13.26    1043
13.28    1089
13.3     1091
13.32    1071
13.34    1076
13.36    1006
13.38    964
13.4     1036
13.42    1096
13.44    1025
13.46    1036
13.48    1111
13.5     1109
13.52    1052
13.54    1033
13.56    1034
13.58    1021
13.6     1043
13.62    1048
13.64    1019
13.66    1011
13.68    1062
13.7     1102
13.72    1162
13.74    1198
13.76    1185
13.78    1145
13.8     1158
13.82    1156
13.84    1146
13.86    1101
13.88    1088
13.9     1117
13.92    1202
13.94    1197
13.96    1101
13.98    1050
14.0     1091
14.02    1059
14.04    1067
14.06    1081
14.08    1079
14.1     1124
14.12    1154
14.14    1124
14.16    1070
14.18    1042
14.2     1028
14.22    1053
14.24    1112
14.26    1115
14.28    1088
14.3     1131
14.32    1115
14.34    1089
14.36    1076
14.38    1024
14.4     1068
14.42    1150
14.44    1123
14.46    1077
14.48    1130
14.5     1181
14.52    1157
14.54    1137
14.56    1105
14.58    1043
14.6     1131
14.62    1116
14.64    1048
14.66    1046
14.68    1100
14.7     1092
14.72    1096
14.74    1086
14.76    1046
14.78    1067
14.8     1153
14.82    1146
14.84    1143
14.86    1135
14.88    1167
14.9     1200
14.92    1215
14.94    1225
14.96    1266
14.98    1319
15.0     1329
15.02    1279
15.04    1260
15.06    1192
15.08    1124
15.1     1071
15.12    1036
15.14    1032
15.16    1057
15.18    1060
15.2     1057
15.22    1036
15.24    1002
15.26    999
15.28    963
15.3     938
15.32    987
15.34    1001
15.36    1022
15.38    1053
15.4     1035
15.42    1019
15.44    979
15.46    1039
15.48    1044
15.5     1021
15.52    1050
15.54    1080
15.56    1085
15.58    1083
15.6     1051
15.62    1065
15.64    1100
15.66    1149
15.68    1159
15.7     1187
15.72    1242
15.74    1233
15.76    1178
15.78    1163
15.8     1180
15.82    1202
15.84    1232
15.86    1233
15.88    1206
15.9     1267
15.92    1350
15.94    1322
15.96    1321
15.98    1395
16.0     1452
16.02    1474
16.04    1514
16.06    1591
16.08    1624
16.1     1739
16.12    1929
16.14    2106
16.16    2232
16.18    2407
16.2     2511
16.22    2657
16.24    2906
16.26    3221
16.28    3601
16.3     4088
16.32    4673
16.34    5419
16.36    6335
16.38    7501
16.4     8945
16.42    10781
16.44    13082
16.46    16053
16.48    19550
16.5     23683
16.52    28274
16.54    33000
16.56    36953
16.58    39335
16.6     39541
16.62    37373
16.64    33185
16.66    27697
16.68    21542
16.7     15902
16.72    11399
16.74    8227
16.76    6154
16.78    4912
16.8     4100
16.82    3532
16.84    3123
16.86    2826
16.88    2529
16.9     2268
16.92    2082
16.94    1946
16.96    1864
16.98    1779
17.0     1680
17.02    1536
17.04    1485
17.06    1505
17.08    1476
17.1     1461
17.12    1426
17.14    1388
17.16    1357
17.18    1303
17.2     1256
17.22    1174
17.24    1128
17.26    1150
17.28    1174
17.3     1240
17.32    1243
17.34    1233
17.36    1256
17.38    1228
17.4     1173
17.42    1138
17.44    1087
17.46    1031
17.48    1009
17.5     1061
17.52    1062
17.54    1049
17.56    1044
17.58    1063
17.6     1040
17.62    1099
17.64    1076
17.66    1034
17.68    1034
17.7     1075
17.72    1053
17.74    1047
17.76    1027
17.78    1029
17.8     994
17.82    1038
17.84    1009
17.86    1009
17.88    960
17.9     959
17.92    998
17.94    1016
17.96    961
17.98    944
18.0     975
18.02    1013
18.04    1013
18.06    1005
18.08    1013
18.1     1010
18.12    1047
18.14    1056
18.16    1040
18.18    1027
18.2     982
18.22    896
18.24    880
18.26    912
18.28    929
18.3     880
18.32    927
18.34    968
18.36    974
18.38    940
18.4     911
18.42    909
18.44    928
18.46    949
18.48    893
18.5     862
18.52    914
18.54    880
18.56    872
18.58    843
18.6     886
18.62    904
18.64    935
18.66    926
18.68    873
18.7     878
18.72    940
18.74    881
18.76    886
18.78    878
18.8     896
18.82    921
18.84    973
18.86    944
18.88    929
18.9     981
18.92    1009
18.94    918
18.96    918
18.98    893
19.0     926
19.02    967
19.04    982
19.06    986
19.08    999
19.1     1038
19.12    1010
19.14    897
19.16    894
19.18    843
19.2     889
19.22    917
19.24    954
19.26    969
19.28    952
19.3     928
19.32    892
19.34    854
19.36    880
19.38    859
19.4     882
19.42    928
19.44    941
19.46    877
19.48    865
19.5     816
19.52    766
19.54    741
19.56    750
19.58    790
19.6     827
19.62    792
19.64    785
19.66    793
19.68    902
19.7     903
19.72    809
19.74    701
19.76    743
19.78    850
19.8     859
19.82    787
19.84    823
19.86    886
19.88    894
19.9     842
19.92    738
19.94    693
19.96    744
19.98    796
20.0     771
20.02    779
20.04    802
20.06    864
20.08    853
20.1     842
20.12    874
20.14    933
20.16    890
20.18    898
20.2     874
20.22    882
20.24    805
20.26    798
20.28    795
20.3     792
20.32    826
20.34    838
20.36    799
20.38    832
20.4     850
20.42    852
20.44    828
20.46    846
20.48    874
20.5     950
20.52    988
20.54    938
20.56    859
20.58    783
20.6     778
20.62    776
20.64    807
20.66    793
20.68    813
20.7     853
20.72    841
20.74    788
20.76    729
20.78    755
20.8     770
20.82    804
20.84    838
20.86    813
20.88    833
20.9     784
20.92    770
20.94    806
20.96    773
20.98    780
21.0     744
21.02    740
21.04    767
21.06    811
21.08    862
21.1     835
21.12    818
21.14    854
21.16    781
21.18    818
21.2     810
21.22    768
21.24    745
21.26    780
21.28    795
21.3     766
21.32    786
21.34    850
21.36    834
21.38    841
21.4     764
21.42    724
21.44    709
21.46    761
21.48    740
21.5     740
21.52    808
21.54    819
21.56    763
21.58    700
21.6     742
21.62    794
21.64    789
21.66    785
21.68    765
21.7     834
21.72    872
21.74    824
21.76    789
21.78    744
21.8     761
21.82    724
21.84    659
21.86    689
21.88    717
21.9     756
21.92    795
21.94    801
21.96    837
21.98    781
22.0     765
22.02    761
22.04    757
22.06    796
22.08    745
22.1     706
22.12    708
22.14    722
22.16    755
22.18    697
22.2     731
22.22    728
22.24    734
22.26    805
22.28    835
22.3     817
22.32    745
22.34    717
22.36    691
22.38    657
22.4     720
22.42    692
22.44    688
22.46    691
22.48    727
22.5     726
22.52    721
22.54    762
22.56    775
22.58    740
22.6     732
22.62    635
22.64    657
22.66    650
22.68    692
22.7     673
22.72    717
22.74    745
22.76    796
22.78    730
22.8     633
22.82    571
22.84    653
22.86    644
22.88    647
22.9     606
22.92    662
22.94    712
22.96    784
22.98    754
23.0     695
23.02    699
23.04    632
23.06    615
23.08    600
23.1     630
23.12    619
23.14    636
23.16    658
23.18    693
23.2     638
23.22    612
23.24    557
23.26    629
23.28    584
23.3     555
23.32    456
23.34    444
23.36    508
23.38    575
23.4     581
23.42    627
23.44    663
23.46    765
23.48    731
23.5     771
23.52    710
23.54    740
23.56    726
23.58    760
23.6     711
23.62    670
23.64    595
23.66    653
23.68    615
23.7     613
23.72    549
23.74    567
23.76    504
23.78    539
23.8     518
23.82    562
23.84    567
23.86    659
23.88    658
23.9     608
23.92    575
23.94    585
23.96    658
23.98    736
24.0     712
24.02    649
24.04    573
24.06    628
24.08    675
24.1     685
24.12    632
24.14    658
24.16    744
24.18    792
24.2     703
24.22    652
24.24    600
24.26    662
24.28    642
24.3     616
24.32    513
24.34    527
24.36    549
24.38    566
24.4     553
24.42    577
24.44    627
24.46    668
24.48    633
24.5     602
24.52    611
24.54    685
24.56    677
24.58    683
24.6     642
24.62    630
24.64    657
24.66    636
24.68    594
24.7     525
24.72    563
24.74    592
24.76    612
24.78    660
24.8     610
24.82    632
24.84    644
24.86    660
24.88    633
24.9     569
24.92    538
24.94    550
24.96    558
24.98    605
25.0     571
25.02    613
25.04    603
25.06    594
25.08    584
25.1     565
25.12    554
25.14    606
25.16    571
25.18    600
25.2     561
25.22    562
25.24    528
25.26    473
25.28    421
25.3     421
25.32    480
25.34    513
25.36    526
25.38    548
25.4     566
25.42    605
25.44    633
25.46    607
25.48    534
25.5     548
25.52    550
25.54    543
25.56    540
25.58    516
25.6     571
25.62    632
25.64    658
25.66    645
25.68    614
25.7     610
25.72    618
25.74    658
25.76    616
25.78    612
25.8     630
25.82    625
25.84    561
25.86    501
25.88    458
25.9     441
25.92    513
25.94    596
25.96    670
25.98    697
26.0     689
26.02    635
26.04    575
26.06    555
26.08    547
26.1     565
26.12    637
26.14    691
26.16    705
26.18    682
26.2     630
26.22    569
26.24    568
26.26    599
26.28    635
26.3     663
26.32    720
26.34    693
26.36    594
26.38    573
26.4     590
26.42    603
26.44    599
26.46    606
26.48    565
26.5     549
26.52    541
26.54    552
26.56    551
26.58    628
26.6     689
26.62    660
26.64    644
26.66    675
26.68    623
26.7     593
26.72    528
26.74    548
26.76    528
26.78    511
26.8     479
26.82    469
26.84    576
26.86    647
26.88    702
26.9     692
26.92    687
26.94    635
26.96    594
26.98    551
27.0     506
27.02    572
27.04    592
27.06    574
27.08    543
27.1     509
27.12    530
27.14    493
27.16    583
27.18    592
27.2     640
27.22    732
27.24    689
27.26    733
27.28    702
27.3     647
27.32    579
27.34    501
27.36    589
27.38    596
27.4     617
27.42    624
27.44    608
27.46    641
27.48    627
27.5     600
27.52    603
27.54    643
27.56    709
27.58    708
27.6     640
27.62    591
27.64    591
27.66    549
27.68    556
27.7     587
27.72    593
27.74    602
27.76    572
27.78    524
27.8     479
27.82    468
27.84    503
27.86    469
27.88    526
27.9     561
27.92    591
27.94    650
27.96    674
27.98    684
28.0     715
28.02    668
28.04    689
28.06    619
28.08    624
28.1     624
28.12    592
28.14    591
28.16    568
28.18    518
28.2     498
28.22    461
28.24    599
28.26    550
28.28    565
28.3     575
28.32    518
28.34    540
28.36    544
28.38    515
28.4     549
28.42    538
28.44    628
28.46    615
28.48    571
28.5     552
28.52    452
28.54    473
28.56    458
28.58    447
28.6     516
28.62    529
28.64    567
28.66    594
28.68    585
28.7     601
28.72    548
28.74    534
28.76    485
28.78    502
28.8     540
28.82    536
28.84    558
28.86    546
28.88    573
28.9     543
28.92    561
28.94    551
28.96    550
28.98    616
29.0     620
29.02    647
29.04    668
29.06    623
29.08    620
29.1     555
29.12    564
29.14    548
29.16    564
29.18    613
29.2     610
29.22    575
29.24    530
29.26    511
29.28    525
29.3     504
29.32    533
29.34    541
29.36    638
29.38    620
29.4     579
29.42    540
29.44    442
29.46    483
29.48    550
29.5     611
29.52    674
29.54    671
29.56    707
29.58    608
29.6     579
29.62    524
29.64    484
29.66    548
29.68    608
29.7     660
29.72    693
29.74    595
29.76    507
29.78    479
29.8     480
29.82    479
29.84    559
29.86    596
29.88    652
29.9     622
29.92    590
29.94    509
29.96    499
29.98    576
30.0     579
30.02    607
30.04    654
30.06    729
30.08    728
30.1     671
30.12    662
30.14    597
30.16    590
30.18    618
30.2     567
30.22    535
30.24    549
30.26    616
30.28    679
30.3     659
30.32    608
30.34    512
30.36    465
30.38    468
30.4     434
30.42    413
30.44    485
30.46    622
30.48    696
30.5     687
30.52    639
30.54    605
30.56    550
30.58    553
30.6     537
30.62    536
30.64    594
30.66    598
30.68    536
30.7     457
30.72    398
30.74    405
30.76    435
30.78    516
30.8     545
30.82    558
30.84    623
30.86    535
30.88    492
30.9     443
30.92    425
30.94    481
30.96    552
30.98    576
31.0     573
31.02    568
31.04    607
31.06    568
31.08    601
31.1     597
31.12    540
31.14    522
31.16    446
31.18    439
31.2     468
31.22    533
31.24    627
31.26    630
31.28    611
31.3     545
31.32    470
31.34    397
31.36    377
31.38    482
31.4     523
31.42    631
31.44    685
31.46    653
31.48    665
31.5     630
31.52    528
31.54    519
31.56    523
31.58    558
31.6     556
31.62    539
31.64    507
31.66    492
31.68    499
31.7     510
31.72    479
31.74    493
31.76    539
31.78    580
31.8     608
31.82    586
31.84    515
31.86    458
31.88    382
31.9     312
31.92    324
31.94    387
31.96    560
31.98    666
32.0     733
32.02    773
32.04    713
32.06    643
32.08    540
32.1     491
32.12    529
32.14    608
32.16    666
32.18    630
32.2     551
32.22    516
32.24    421
32.26    396
32.28    446
32.3     508
32.32    618
32.34    722
32.36    695
32.38    623
32.4     574
32.42    528
32.44    466
32.46    468
32.48    518
32.5     556
32.52    731
32.54    747
32.56    716
32.58    673
32.6     577
32.62    502
32.64    473
32.66    507
32.68    587
32.7     689
32.72    795
32.74    768
32.76    788
32.78    727
32.8     653
32.82    650
32.84    642
32.86    668
32.88    723
32.9     742
32.92    731
32.94    724
32.96    719
32.98    696
33.0     724
33.02    791
33.04    826
33.06    776
33.08    780
33.1     750
33.12    735
33.14    732
33.16    765
33.18    780
33.2     833
33.22    955
33.24    1045
33.26    1085
33.28    1230
33.3     1287
33.32    1448
33.34    1578
33.36    1774
33.38    2027
33.4     2358
33.42    2833
33.44    3403
33.46    4069
33.48    4962
33.5     5950
33.52    7246
33.54    8477
33.56    9597
33.58    10329
33.6     10543
33.62    10158
33.64    9297
33.66    8043
33.68    6632
33.7     5253
33.72    4185
33.74    3323
33.76    2685
33.78    2111
33.8     1740
33.82    1451
33.84    1312
33.86    1268
33.88    1224
33.9     1196
33.92    1215
33.94    1123
33.96    1002
33.98    863
34.0     794
34.02    743
34.04    697
34.06    732
34.08    741
34.1     839
34.12    860
34.14    783
34.16    799
34.18    832
34.2     825
34.22    825
34.24    793
34.26    787
34.28    774
34.3     829
34.32    771
34.34    743
34.36    764
34.38    715
34.4     683
34.42    684
34.44    679
34.46    708
34.48    727
34.5     784
34.52    805
34.54    786
34.56    720
34.58    581
34.6     561
34.62    525
34.64    567
34.66    712
34.68    816
34.7     930
34.72    976
34.74    945
34.76    913
34.78    834
34.8     841
34.82    834
34.84    988
34.86    1190
34.88    1318
34.9     1547
34.92    1743
34.94    1999
34.96    2452
34.98    3060
35.0     3959
35.02    5206
35.04    6752
35.06    8251
35.08    9551
35.1     10419
35.12    10610
35.14    10123
35.16    9093
35.18    7660
35.2     6144
35.22    4752
35.24    3608
35.26    2744
35.28    2171
35.3     1749
35.32    1480
35.34    1260
35.36    1161
35.38    1095
35.4     1089
35.42    1017
35.44    1024
35.46    1060
35.48    1032
35.5     954
35.52    877
35.54    809
35.56    798
35.58    810
35.6     853
35.62    816
35.64    890
35.66    942
35.68    876
35.7     797
35.72    717
35.74    620
35.76    604
35.78    644
35.8     622
35.82    715
35.84    800
35.86    861
35.88    894
35.9     940
35.92    928
35.94    885
35.96    899
35.98    894
36.0     886
36.02    1011
36.04    1032
36.06    1106
36.08    1148
36.1     1204
36.12    1182
36.14    1194
36.16    1294
36.18    1474
36.2     1745
36.22    2120
36.24    2510
36.26    3019
36.28    3594
36.3     4426
36.32    5439
36.34    6874
36.36    8869
36.38    11287
36.4     14126
36.42    17160
36.44    19790
36.46    21661
36.48    22411
36.5     21906
36.52    20081
36.54    17349
36.56    14260
36.58    11103
36.6     8390
36.62    6258
36.64    4723
36.66    3686
36.68    3039
36.7     2627
36.72    2273
36.74    2042
36.76    1864
36.78    1686
36.8     1528
36.82    1321
36.84    1215
36.86    1105
36.88    1014
36.9     972
36.92    902
36.94    909
36.96    896
36.98    903
37.0     943
37.02    892
37.04    881
37.06    860
37.08    812
37.1     732
37.12    631
37.14    610
37.16    659
37.18    665
37.2     729
37.22    824
37.24    849
37.26    844
37.28    827
37.3     758
37.32    739
37.34    827
37.36    944
37.38    1028
37.4     1105
37.42    1114
37.44    973
37.46    806
37.48    646
37.5     542
37.52    477
37.54    514
37.56    561
37.58    631
37.6     631
37.62    619
37.64    612
37.66    626
37.68    658
37.7     683
37.72    643
37.74    681
37.76    674
37.78    708
37.8     700
37.82    678
37.84    642
37.86    636
37.88    564
37.9     472
37.92    429
37.94    480
37.96    497
37.98    612
38.0     664
38.02    647
38.04    631
38.06    647
38.08    526
38.1     542
38.12    539
38.14    582
38.16    625
38.18    685
38.2     718
38.22    742
38.24    739
38.26    762
38.28    669
38.3     666
38.32    554
38.34    475
38.36    428
38.38    445
38.4     426
38.42    472
38.44    504
38.46    586
38.48    701
38.5     767
38.52    794
38.54    759
38.56    748
38.58    631
38.6     484
38.62    362
38.64    332
38.66    346
38.68    521
38.7     609
38.72    730
38.74    786
38.76    804
38.78    668
38.8     627
38.82    517
38.84    457
38.86    444
38.88    560
38.9     572
38.92    642
38.94    700
38.96    674
38.98    603
39.0     592
39.02    517
39.04    421
39.06    461
39.08    489
39.1     489
39.12    595
39.14    641
39.16    702
39.18    714
39.2     693
39.22    610
39.24    593
39.26    564
39.28    505
39.3     501
39.32    545
39.34    529
39.36    612
39.38    606
39.4     631
39.42    624
39.44    655
39.46    588
39.48    617
39.5     604
39.52    589
39.54    540
39.56    534
39.58    530
39.6     614
39.62    648
39.64    647
39.66    664
39.68    676
39.7     602
39.72    525
39.74    474
39.76    425
39.78    394
39.8     425
39.82    479
39.84    532
39.86    618
39.88    630
39.9     660
39.92    615
39.94    648
39.96    638
39.98    609
40.0     637
40.02    721
40.04    810
40.06    879
40.08    982
40.1     1004
40.12    976
40.14    968
40.16    906
40.18    797
40.2     804
40.22    796
40.24    828
40.26    890
40.28    1038
40.3     1071
40.32    1084
40.34    1063
40.36    1002
40.38    928
40.4     897
40.42    818
40.44    865
40.46    912
40.48    956
40.5     988
40.52    1012
40.54    1060
40.56    1109
40.58    1161
40.6     1252
40.62    1280
40.64    1369
40.66    1408
40.68    1337
40.7     1288
40.72    1240
40.74    1175
40.76    1157
40.78    1194
40.8     1302
40.82    1366
40.84    1437
40.86    1513
40.88    1507
40.9     1453
40.92    1468
40.94    1458
40.96    1512
40.98    1636
41.0     1781
41.02    1891
41.04    1960
41.06    2097
41.08    2222
41.1     2342
41.12    2576
41.14    2888
41.16    3233
41.18    3699
41.2     4185
41.22    4742
41.24    5335
41.26    6111
41.28    6956
41.3     8125
41.32    9640
41.34    11598
41.36    14037
41.38    17306
41.4     21477
41.42    26648
41.44    32984
41.46    40495
41.48    48580
41.5     56593
41.52    63326
41.54    67804
41.56    69060
41.58    67062
41.6     62039
41.62    54784
41.64    46418
41.66    38157
41.68    30701
41.7     24486
41.72    19404
41.74    15547
41.76    12457
41.78    10144
41.8     8385
41.82    7099
41.84    6094
41.86    5396
41.88    4901
41.9     4446
41.92    3967
41.94    3650
41.96    3290
41.98    2954
42.0     2679
42.02    2478
42.04    2261
42.06    2059
42.08    1949
42.1     1843
42.12    1794
42.14    1789
42.16    1809
42.18    1772
42.2     1756
42.22    1735
42.24    1610
42.26    1475
42.28    1367
42.3     1261
42.32    1180
42.34    1130
42.36    1143
42.38    1081
42.4     1059
42.42    1060
42.44    1088
42.46    1100
42.48    1036
42.5     1051
42.52    1011
42.54    962
42.56    978
42.58    999
42.6     1000
42.62    996
42.64    1071
42.66    1055
42.68    953
42.7     920
42.72    870
42.74    845
42.76    851
42.78    861
42.8     910
42.82    900
42.84    862
42.86    826
42.88    860
42.9     781
42.92    729
42.94    679
42.96    680
42.98    658
43.0     707
43.02    754
43.04    718
43.06    801
43.08    916
43.1     884
43.12    846
43.14    814
43.16    810
43.18    753
43.2     780
43.22    786
43.24    760
43.26    802
43.28    792
43.3     754
43.32    673
43.34    655
43.36    655
43.38    630
43.4     691
43.42    697
43.44    736
43.46    744
43.48    720
43.5     673
43.52    625
43.54    634
43.56    666
43.58    698
43.6     735
43.62    752
43.64    780
43.66    825
43.68    827
43.7     754
43.72    726
43.74    645
43.76    620
43.78    571
43.8     556
43.82    604
43.84    663
43.86    756
43.88    804
43.9     786
43.92    754
43.94    671
43.96    572
43.98    508
44.0     462
44.02    510
44.04    591
44.06    693
44.08    765
44.1     761
44.12    729
44.14    728
44.16    647
44.18    573
44.2     511
44.22    536
44.24    588
44.26    605
44.28    637
44.3     682
44.32    678
44.34    752
44.36    754
44.38    752
44.4     721
44.42    615
44.44    562
44.46    490
44.48    494
44.5     552
44.52    569
44.54    649
44.56    712
44.58    783
44.6     767
44.62    706
44.64    671
44.66    635
44.68    625
44.7     674
44.72    693
44.74    700
44.76    753
44.78    793
44.8     776
44.82    743
44.84    752
44.86    778
44.88    795
44.9     908
44.92    991
44.94    1098
44.96    1242
44.98    1362
45.0     1470
45.02    1555
45.04    1671
45.06    1721
45.08    1701
45.1     1640
45.12    1441
45.14    1278
45.16    1102
45.18    900
45.2     834
45.22    788
45.24    852
45.26    907
45.28    892
45.3     874
45.32    707
45.34    647
45.36    555
45.38    440
45.4     510
45.42    567
45.44    713
45.46    778
45.48    743
45.5     765
45.52    666
45.54    691
45.56    645
45.58    579
45.6     623
45.62    595
45.64    624
45.66    541
45.68    449
45.7     440
45.72    378
45.74    429
45.76    489
45.78    548
45.8     653
45.82    704
45.84    765
45.86    716
45.88    679
45.9     631
45.92    532
45.94    545
45.96    577
45.98    521
46.0     542
46.02    534
46.04    482
46.06    407
46.08    369
46.1     415
46.12    439
46.14    513
46.16    595
46.18    587
46.2     665
46.22    649
46.24    592
46.26    553
46.28    561
46.3     581
46.32    562
46.34    577
46.36    620
46.38    638
46.4     657
46.42    623
46.44    632
46.46    597
46.48    534
46.5     449
46.52    418
46.54    403
46.56    441
46.58    483
46.6     511
46.62    520
46.64    513
46.66    464
46.68    372
46.7     343
46.72    359
46.74    401
46.76    492
46.78    542
46.8     603
46.82    624
46.84    614
46.86    612
46.88    529
46.9     487
46.92    472
46.94    451
46.96    393
46.98    372
47.0     422
47.02    459
47.04    481
47.06    522
47.08    594
47.1     632
47.12    668
47.14    658
47.16    636
47.18    622
47.2     567
47.22    483
47.24    443
47.26    420
47.28    452
47.3     472
47.32    476
47.34    536
47.36    571
47.38    593
47.4     576
47.42    545
47.44    575
47.46    568
47.48    530
47.5     527
47.52    488
47.54    509
47.56    547
47.58    524
47.6     547
47.62    544
47.64    597
47.66    649
47.68    617
47.7     645
47.72    670
47.74    670
47.76    711
47.78    606
47.8     591
47.82    543
47.84    503
47.86    541
47.88    525
47.9     557
47.92    615
47.94    661
47.96    702
47.98    631
48.0     626
48.02    649
48.04    633
48.06    626
48.08    548
48.1     500
48.12    456
48.14    417
48.16    313
48.18    244
48.2     312
48.22    433
48.24    561
48.26    618
48.28    684
48.3     742
48.32    734
48.34    714
48.36    583
48.38    470
48.4     387
48.42    315
48.44    284
48.46    226
48.48    276
48.5     374
48.52    511
48.54    635
48.56    727
48.58    804
48.6     795
48.62    747
48.64    649
48.66    515
48.68    436
48.7     383
48.72    371
48.74    343
48.76    389
48.78    507
48.8     553
48.82    601
48.84    602
48.86    629
48.88    673
48.9     612
48.92    578
48.94    536
48.96    491
48.98    517
49.0     467
49.02    448
49.04    426
49.06    412
49.08    424
49.1     384
49.12    364
49.14    383
49.16    383
49.18    397
49.2     423
49.22    478
49.24    509
49.26    554
49.28    619
49.3     628
49.32    611
49.34    627
49.36    629
49.38    544
49.4     463
49.42    406
49.44    382
49.46    426
49.48    433
49.5     428
49.52    495
49.54    612
49.56    701
49.58    649
49.6     565
49.62    570
49.64    552
49.66    565
49.68    529
49.7     505
49.72    542
49.74    558
49.76    561
49.78    484
49.8     415
49.82    427
49.84    413
49.86    440
49.88    488
49.9     487
49.92    517
49.94    569
49.96    584
49.98    569
50.0     533
50.02    475
50.04    483
50.06    441
50.08    434
50.1     378
50.12    408
50.14    430
50.16    468
50.18    498
50.2     565
50.22    509
50.24    476
50.26    393
50.28    314
50.3     254
50.32    274
50.34    225
50.36    338
50.38    428
50.4     569
50.42    561
50.44    557
50.46    513
50.48    460
50.5     397
50.52    327
50.54    218
50.56    275
50.58    318
50.6     459
50.62    517
50.64    626
50.66    691
50.68    732
50.7     657
50.72    579
50.74    535
50.76    482
50.78    418
50.8     438
50.82    410
50.84    526
50.86    578
50.88    601
50.9     598
50.92    664
50.94    665
50.96    606
50.98    498
51.0     440
51.02    362
51.04    382
51.06    352
51.08    381
51.1     413
51.12    530
51.14    579
51.16    662
51.18    674
51.2     704
51.22    625
51.24    606
51.26    537
51.28    477
51.3     376
51.32    392
51.34    404
51.36    482
51.38    542
51.4     619
51.42    634
51.44    743
51.46    771
51.48    736
51.5     690
51.52    650
51.54    553
51.56    496
51.58    398
51.6     401
51.62    388
51.64    486
51.66    562
51.68    606
51.7     664
51.72    709
51.74    680
51.76    644
51.78    576
51.8     553
51.82    481
51.84    474
51.86    451
51.88    492
51.9     571
51.92    617
51.94    539
51.96    512
51.98    492
52.0     506
52.02    490
52.04    452
52.06    471
52.08    594
52.1     684
52.12    675
52.14    593
52.16    570
52.18    636
52.2     678
52.22    609
52.24    521
52.26    532
52.28    499
52.3     482
52.32    389
52.34    337
52.36    362
52.38    411
52.4     396
52.42    420
52.44    456
52.46    505
52.48    534
52.5     590
52.52    616
52.54    694
52.56    675
52.58    627
52.6     609
52.62    595
52.64    552
52.66    499
52.68    463
52.7     480
52.72    488
52.74    483
52.76    442
52.78    525
52.8     543
52.82    622
52.84    595
52.86    605
52.88    583
52.9     634
52.92    605
52.94    595
52.96    624
52.98    712
53.0     771
53.02    924
53.04    896
53.06    949
53.08    957
53.1     1003
53.12    980
53.14    1000
53.16    1028
53.18    1113
53.2     1296
53.22    1459
53.24    1511
53.26    1680
53.28    1909
53.3     2109
53.32    2371
53.34    2668
53.36    3059
53.38    3574
53.4     4143
53.42    4604
53.44    5032
53.46    5434
53.48    5710
53.5     5760
53.52    5654
53.54    5277
53.56    4909
53.58    4424
53.6     3879
53.62    3297
53.64    2844
53.66    2411
53.68    2137
53.7     1849
53.72    1613
53.74    1454
53.76    1379
53.78    1213
53.8     1095
53.82    958
53.84    956
53.86    894
53.88    895
53.9     772
53.92    744
53.94    749
53.96    713
53.98    673
54.0     660
54.02    620
54.04    722
54.06    751
54.08    769
54.1     752
54.12    792
54.14    771
54.16    828
54.18    779
54.2     670
54.22    531
54.24    448
54.26    388
54.28    316
54.3     303
54.32    351
54.34    395
54.36    597
54.38    657
54.4     632
54.42    628
54.44    650
54.46    597
54.48    497
54.5     410
54.52    373
54.54    398
54.56    400
54.58    397
54.6     387
54.62    477
54.64    532
54.66    515
54.68    559
54.7     638
54.72    682
54.74    619
54.76    499
54.78    522
54.8     463
54.82    421
54.84    321
54.86    259
54.88    264
54.9     382
54.92    382
54.94    363
54.96    487
54.98    610
55.0     626
55.02    628
55.04    511
55.06    411
55.08    349
55.1     384
55.12    296
55.14    268
55.16    311
55.18    347
55.2     418
55.22    459
55.24    443
55.26    480
55.28    564
55.3     622
55.32    611
55.34    610
55.36    589
55.38    593
55.4     591
55.42    554
55.44    498
55.46    500
55.48    513
55.5     483
55.52    524
55.54    523
55.56    506
55.58    541
55.6     477
55.62    462
55.64    447
55.66    494
55.68    506
55.7     488
55.72    468
55.74    442
55.76    452
55.78    444
55.8     381
55.82    397
55.84    393
55.86    434
55.88    457
55.9     390
55.92    358
55.94    355
55.96    376
55.98    424
56.0     472
56.02    528
56.04    636
56.06    719
56.08    761
56.1     736
56.12    760
56.14    666
56.16    613
56.18    544
56.2     474
56.22    429
56.24    446
56.26    435
56.28    459
56.3     501
56.32    536
56.34    516
56.36    544
56.38    495
56.4     517
56.42    468
56.44    452
56.46    512
56.48    566
56.5     561
56.52    594
56.54    579
56.56    530
56.58    482
56.6     482
56.62    377
56.64    386
56.66    449
56.68    427
56.7     411
56.72    462
56.74    465
56.76    496
56.78    562
56.8     620
56.82    616
56.84    682
56.86    638
56.88    559
56.9     582
56.92    534
56.94    515
56.96    529
56.98    530
57.0     563
57.02    579
57.04    620
57.06    602
57.08    660
57.1     706
57.12    601
57.14    564
57.16    506
57.18    485
57.2     472
57.22    433
57.24    471
57.26    569
57.28    687
57.3     712
57.32    766
57.34    794
57.36    821
57.38    834
57.4     772
57.42    643
57.44    570
57.46    580
57.48    566
57.5     622
57.52    718
57.54    813
57.56    898
57.58    927
57.6     983
57.62    951
57.64    960
57.66    939
57.68    832
57.7     843
57.72    823
57.74    875
57.76    839
57.78    870
57.8     953
57.82    1091
57.84    1271
57.86    1396
57.88    1467
57.9     1670
57.92    1821
57.94    1956
57.96    2045
57.98    2188
58.0     2278
58.02    2503
58.04    2776
58.06    3133
58.08    3592
58.1     4159
58.12    4807
58.14    5556
58.16    6438
58.18    7430
58.2     8434
58.22    9521
58.24    10563
58.26    11506
58.28    12284
58.3     12704
58.32    12824
58.34    12512
58.36    11894
58.38    11001
58.4     9941
58.42    8746
58.44    7582
58.46    6610
58.48    5713
58.5     4964
58.52    4295
58.54    3747
58.56    3303
58.58    2960
58.6     2698
58.62    2341
58.64    2178
58.66    2028
58.68    1866
58.7     1744
58.72    1547
58.74    1438
58.76    1363
58.78    1332
58.8     1247
58.82    1121
58.84    1077
58.86    1032
58.88    1038
58.9     1004
58.92    940
58.94    926
58.96    954
58.98    899
59.0     822
59.02    763
59.04    727
59.06    747
59.08    709
59.1     658
59.12    633
59.14    678
59.16    671
59.18    585
59.2     576
59.22    524
59.24    543
59.26    530
59.28    536
59.3     536
59.32    556
59.34    604
59.36    591
59.38    592
59.4     595
59.42    591
59.44    606
59.46    622
59.48    651
59.5     627
59.52    590
59.54    542
59.56    556
59.58    574
59.6     577
59.62    614
59.64    662
59.66    694
59.68    704
59.7     752
59.72    751
59.74    742
59.76    771
59.78    741
59.8     675
59.82    586
59.84    497
59.86    371
59.88    286
59.9     279
59.92    206
59.94    250
59.96    332
59.98    414
60.0     507
60.02    625
60.04    717
60.06    770
60.08    832
60.1     778
60.12    694
60.14    676
60.16    606
60.18    549
60.2     435
60.22    444
60.24    429
60.26    422
60.28    405
60.3     361
60.32    412
60.34    474
60.36    583
60.38    650
60.4     651
60.42    699
60.44    701
60.46    679
60.48    544
60.5     483
60.52    413
60.54    383
60.56    435
60.58    491
60.6     515
60.62    514
60.64    540
60.66    533
60.68    484
60.7     503
60.72    490
60.74    451
60.76    460
60.78    565
60.8     557
60.82    566
60.84    550
60.86    571
60.88    568
60.9     631
60.92    602
60.94    484
60.96    506
60.98    556
61.0     499
61.02    512
61.04    502
61.06    487
61.08    472
61.1     473
61.12    497
61.14    529
61.16    624
61.18    684
61.2     674
61.22    725
61.24    761
61.26    734
61.28    735
61.3     648
61.32    637
61.34    585
61.36    495
61.38    455
61.4     390
61.42    360
61.44    437
61.46    504
61.48    638
61.5     703
61.52    826
61.54    910
61.56    938
61.58    1003
61.6     970
61.62    937
61.64    953
61.66    959
61.68    1007
61.7     1023
61.72    1117
61.74    1179
61.76    1294
61.78    1456
61.8     1615
61.82    1850
61.84    2110
61.86    2393
61.88    2738
61.9     3156
61.92    3677
61.94    4333
61.96    5115
61.98    6205
62.0     7491
62.02    8925
62.04    10469
62.06    12034
62.08    13474
62.1     14562
62.12    15188
62.14    15169
62.16    14566
62.18    13627
62.2     12297
62.22    10756
62.24    9187
62.26    7796
62.28    6599
62.3     5518
62.32    4735
62.34    3989
62.36    3420
62.38    2966
62.4     2597
62.42    2243
62.44    1921
62.46    1700
62.48    1506
62.5     1232
62.52    1111
62.54    951
62.56    911
62.58    924
62.6     969
62.62    996
62.64    999
62.66    1098
62.68    1097
62.7     997
62.72    934
62.74    826
62.76    742
62.78    685
62.8     635
62.82    552
62.84    435
62.86    473
62.88    430
62.9     469
62.92    544
62.94    645
62.96    712
62.98    748
63.0     816
63.02    817
63.04    735
63.06    749
63.08    675
63.1     596
63.12    531
63.14    499
63.16    465
63.18    431
63.2     464
63.22    432
63.24    443
63.26    537
63.28    571
63.3     632
63.32    635
63.34    659
63.36    694
63.38    700
63.4     692
63.42    602
63.44    543
63.46    479
63.48    440
63.5     474
63.52    441
63.54    538
63.56    535
63.58    563
63.6     645
63.62    684
63.64    720
63.66    691
63.68    663
63.7     635
63.72    488
63.74    522
63.76    418
63.78    324
63.8     334
63.82    363
63.84    405
63.86    479
63.88    554
63.9     631
63.92    591
63.94    670
63.96    663
63.98    583
64.0     589
64.02    577
64.04    533
64.06    528
64.08    554
64.1     603
64.12    627
64.14    575
64.16    593
64.18    527
64.2     561
64.22    571
64.24    544
64.26    542
64.28    500
64.3     472
64.32    549
64.34    513
64.36    554
64.38    585
64.4     726
64.42    851
64.44    959
64.46    1111
64.48    1188
64.5     1191
64.52    1238
64.54    1259
64.56    1248
64.58    1245
64.6     1344
64.62    1483
64.64    1592
64.66    1852
64.68    2186
64.7     2469
64.72    2820
64.74    3218
64.76    3531
64.78    3764
64.8     3960
64.82    4037
64.84    3919
64.86    3690
64.88    3396
64.9     3030
64.92    2676
64.94    2331
64.96    1994
64.98    1709
65.0     1469
65.02    1342
65.04    1257
65.06    1160
65.08    1048
65.1     978
65.12    979
65.14    940
65.16    886
65.18    840
65.2     778
65.22    765
65.24    754
65.26    748
65.28    672
65.3     613
65.32    589
65.34    559
65.36    507
65.38    486
65.4     504
65.42    469
65.44    458
65.46    523
65.48    569
65.5     601
65.52    603
65.54    584
65.56    518
65.58    438
65.6     403
65.62    349
65.64    315
65.66    355
65.68    398
65.7     406
65.72    437
65.74    453
65.76    504
65.78    489
65.8     551
65.82    594
65.84    618
65.86    610
65.88    598
65.9     493
65.92    481
65.94    456
65.96    453
65.98    451
66.0     503
66.02    424
66.04    414
66.06    367
66.08    413
66.1     395
66.12    457
66.14    502
66.16    538
66.18    580
66.2     592
66.22    489
66.24    447
66.26    411
66.28    397
66.3     397
66.32    404
66.34    443
66.36    424
66.38    430
66.4     444
66.42    452
66.44    477
66.46    532
66.48    529
66.5     517
66.52    469
66.54    470
66.56    421
66.58    401
66.6     360
66.62    350
66.64    316
66.66    343
66.68    397
66.7     381
66.72    394
66.74    443
66.76    512
66.78    598
66.8     624
66.82    624
66.84    591
66.86    584
66.88    606
66.9     538
66.92    486
66.94    458
66.96    450
66.98    487
67.0     495
67.02    515
67.04    561
67.06    526
67.08    520
67.1     476
67.12    475
67.14    490
67.16    436
67.18    454
67.2     445
67.22    440
67.24    445
67.26    404
67.28    397
67.3     414
67.32    418
67.34    471
67.36    521
67.38    566
67.4     579
67.42    592
67.44    558
67.46    568
67.48    573
67.5     580
67.52    542
67.54    593
67.56    585
67.58    475
67.6     397
67.62    353
67.64    290
67.66    277
67.68    255
67.7     256
67.72    357
67.74    442
67.76    487
67.78    504
67.8     604
67.82    712
67.84    718
67.86    678
67.88    612
67.9     510
67.92    480
67.94    434
67.96    407
67.98    364
68.0     382
68.02    441
68.04    419
68.06    442
68.08    403
68.1     367
68.12    425
68.14    502
68.16    510
68.18    557
68.2     619
68.22    610
68.24    586
68.26    577
68.28    548
68.3     538
68.32    539
68.34    530
68.36    543
68.38    532
68.4     512
68.42    499
68.44    580
68.46    646
68.48    686
68.5     732
68.52    717
68.54    725
68.56    765
68.58    719
68.6     741
68.62    753
68.64    721
68.66    751
68.68    773
68.7     873
68.72    940
68.74    1074
68.76    1222
68.78    1343
68.8     1464
68.82    1547
68.84    1684
68.86    1826
68.88    1944
68.9     2128
68.92    2324
68.94    2513
68.96    2733
68.98    2886
69.0     3014
69.02    3143
69.04    3218
69.06    3145
69.08    3077
69.1     2928
69.12    2739
69.14    2553
69.16    2331
69.18    2083
69.2     1885
69.22    1692
69.24    1530
69.26    1368
69.28    1214
69.3     1071
69.32    980
69.34    836
69.36    706
69.38    675
69.4     662
69.42    690
69.44    743
69.46    772
69.48    810
69.5     895
69.52    865
69.54    785
69.56    777
69.58    720
69.6     699
69.62    615
69.64    574
69.66    539
69.68    530
69.7     453
69.72    445
69.74    421
69.76    440
69.78    460
69.8     483
69.82    479
69.84    511
69.86    551
69.88    542
69.9     554
69.92    562
69.94    532
69.96    470
69.98    423
70.0     387
70.02    350
70.04    347
70.06    404
70.08    450
70.1     545
70.12    565
70.14    584
70.16    590
70.18    561
70.2     508
70.22    465
70.24    526
70.26    527
70.28    545
70.3     586
70.32    641
70.34    690
70.36    762
70.38    808
70.4     843
70.42    948
70.44    1014
70.46    997
70.48    1034
70.5     1104
70.52    1198
70.54    1276
70.56    1380
70.58    1542
70.6     1646
70.62    1777
70.64    1835
70.66    1847
70.68    1847
70.7     1749
70.72    1681
70.74    1561
70.76    1464
70.78    1378
70.8     1265
70.82    1230
70.84    1172
70.86    1126
70.88    1074
70.9     985
70.92    942
70.94    882
70.96    818
70.98    720
71.0     654
71.02    579
71.04    545
71.06    543
71.08    549
71.1     581
71.12    621
71.14    644
71.16    608
71.18    577
71.2     540
71.22    507
71.24    527
71.26    523
71.28    526
71.3     555
71.32    570
71.34    543
71.36    491
71.38    477
71.4     470
71.42    472
71.44    434
71.46    475
71.48    498
71.5     499
71.52    455
71.54    448
71.56    444
71.58    534
71.6     578
71.62    598
71.64    631
71.66    669
71.68    605
71.7     490
71.72    434
71.74    478
71.76    470
71.78    524
71.8     552
71.82    572
71.84    613
71.86    628
71.88    598
71.9     623
71.92    724
71.94    730
71.96    679
71.98    655
72.0     679
72.02    644
72.04    654
72.06    695
72.08    703
72.1     778
72.12    805
72.14    786
72.16    877
72.18    978
72.2     1104
72.22    1199
72.24    1275
72.26    1422
72.28    1545
72.3     1656
72.32    1791
72.34    1967
72.36    2247
72.38    2441
72.4     2680
72.42    2973
72.44    3204
72.46    3550
72.48    3829
72.5     3987
72.52    4133
72.54    4207
72.56    4166
72.58    4043
72.6     3886
72.62    3589
72.64    3249
72.66    2970
72.68    2621
72.7     2293
72.72    2073
72.74    1876
72.76    1678
72.78    1571
72.8     1436
72.82    1276
72.84    1195
72.86    1077
72.88    976
72.9     894
72.92    813
72.94    771
72.96    785
72.98    774
73.0     793
73.02    869
73.04    905
73.06    847
73.08    828
73.1     769
73.12    697
73.14    699
73.16    720
73.18    634
73.2     625
73.22    644
73.24    638
73.26    653
73.28    750
73.3     815
73.32    884
73.34    954
73.36    974
73.38    972
73.4     1047
73.42    1088
73.44    1140
73.46    1169
73.48    1202
73.5     1135
73.52    1028
73.54    983
73.56    921
73.58    886
73.6     809
73.62    731
73.64    630
73.66    534
73.68    471
73.7     448
73.72    444
73.74    546
73.76    591
73.78    661
73.8     682
73.82    769
73.84    746
73.86    785
73.88    806
73.9     805
73.92    791
73.94    796
73.96    792
73.98    860
74.0     891
74.02    984
74.04    999
74.06    1080
74.08    1116
74.1     1171
74.12    1351
74.14    1513
74.16    1630
74.18    1788
74.2     1925
74.22    2081
74.24    2157
74.26    2182
74.28    2166
74.3     2157
74.32    2087
74.34    1961
74.36    1755
74.38    1623
74.4     1472
74.42    1374
74.44    1295
74.46    1172
74.48    1083
74.5     990
74.52    873
74.54    854
74.56    841
74.58    950
74.6     981
74.62    1085
74.64    1151
74.66    1140
74.68    1216
74.7     1224
74.72    1258
74.74    1407
74.76    1517
74.78    1659
74.8     1640
74.82    1653
74.84    1583
74.86    1550
74.88    1610
74.9     1605
74.92    1648
74.94    1734
74.96    1740
74.98    1744
75.0     1623
75.02    1519
75.04    1416
75.06    1335
75.08    1304
75.1     1168
75.12    1140
75.14    1090
75.16    1023
75.18    967
75.2     846
75.22    784
75.24    745
75.26    638
75.28    587
75.3     506
75.32    608
75.34    590
75.36    548
75.38    568
75.4     564
75.42    590
75.44    557
75.46    537
75.48    586
75.5     590
75.52    600
75.54    600
75.56    553
75.58    584
75.6     570
75.62    494
75.64    400
75.66    442
75.68    438
75.7     365
75.72    343
75.74    415
75.76    400
75.78    449
75.8     443
75.82    329
75.84    345
75.86    429
75.88    383
75.9     402
75.92    475
75.94    555
75.96    483
75.98    474
76.0     432
76.02    397
76.04    472
76.06    469
76.08    395
76.1     395
76.12    366
76.14    314
76.16    222
76.18    224
76.2     240
76.22    319
76.24    386
76.26    384
76.28    371
76.3     367
76.32    411
76.34    434
76.36    491
76.38    518
76.4     526
76.42    514
76.44    459
76.46    378
76.48    404
76.5     401
76.52    496
76.54    448
76.56    455
76.58    479
76.6     460
76.62    390
76.64    416
76.66    477
76.68    578
76.7     572
76.72    623
76.74    553
76.76    586
76.78    585
76.8     548
76.82    494
76.84    555
76.86    535
76.88    506
76.9     474
76.92    502
76.94    528
76.96    605
76.98    598
77.0     631
77.02    697
77.04    710
77.06    700
77.08    670
77.1     744
77.12    849
77.14    966
77.16    1008
77.18    1052
77.2     1193
77.22    1297
77.24    1285
77.26    1366
77.28    1389
77.3     1529
77.32    1721
77.34    1882
77.36    2012
77.38    2327
77.4     2632
77.42    2877
77.44    3178
77.46    3539
77.48    3852
77.5     4184
77.52    4453
77.54    4617
77.56    4721
77.58    4770
77.6     4619
77.62    4367
77.64    4070
77.66    3752
77.68    3387
77.7     3079
77.72    2738
77.74    2435
77.76    2171
77.78    1905
77.8     1637
77.82    1402
77.84    1266
77.86    1169
77.88    1134
77.9     1140
77.92    1100
77.94    997
77.96    884
77.98    836
78.0     735
78.02    717
78.04    748
78.06    791
78.08    868
78.1     822
78.12    758
78.14    649
78.16    572
78.18    586
78.2     553
78.22    517
78.24    513
78.26    455
78.28    389
78.3     293
78.32    247
78.34    265
78.36    332
78.38    407
78.4     476
78.42    499
78.44    501
78.46    392
78.48    381
78.5     404
78.52    500
78.54    588
78.56    667
78.58    692
78.6     753
78.62    697
78.64    606
78.66    467
78.68    447
78.7     398
78.72    409
78.74    342
78.76    332
78.78    295
78.8     357
78.82    310
78.84    346
78.86    368
78.88    434
78.9     430
78.92    405
78.94    426
78.96    441
78.98    432
79.0     478
79.02    473
79.04    458
79.06    490
79.08    466
79.1     411
79.12    345
79.14    360
79.16    339
79.18    320
79.2     411
79.22    419
79.24    449
79.26    494
79.28    473
79.3     470
79.32    447
79.34    399
79.36    374
79.38    369
79.4     463
79.42    443
79.44    426
79.46    394
79.48    364
79.5     365
79.52    293
79.54    277
79.56    297
79.58    355
79.6     405
79.62    399
79.64    380
79.66    391
79.68    423
79.7     466
79.72    465
79.74    497
79.76    529
79.78    545
79.8     511
79.82    491
79.84    539
79.86    612
79.88    637
79.9     673
79.92    631
79.94    638
79.96    618
79.98    584
80.0     530
80.02    511
80.04    563
80.06    595
80.08    536
80.1     505
80.12    469
80.14    503
80.16    519
80.18    464
80.2     438
80.22    412
80.24    398
80.26    359
80.28    312
80.3     297
80.32    295
80.34    317
80.36    378
80.38    327
80.4     360
80.42    379
80.44    379
80.46    359
80.48    382
80.5     442
80.52    483
80.54    516
80.56    582
80.58    571
80.6     584
80.62    532
80.64    455
80.66    376
80.68    328
80.7     351
80.72    337
80.74    307
80.76    298
80.78    310
80.8     314
80.82    272
80.84    279
80.86    335
80.88    343
80.9     389
80.92    358
80.94    353
80.96    324
80.98    322
81.0     335
81.02    317
81.04    386
81.06    438
81.08    434
81.1     411
81.12    414
81.14    414
81.16    362
81.18    353
81.2     342
81.22    325
81.24    377
81.26    436
81.28    437
81.3     462
81.32    560
81.34    571
81.36    565
81.38    507
81.4     447
81.42    437
81.44    379
81.46    345
81.48    268
81.5     280
81.52    301
81.54    273
81.56    238
81.58    135
81.6     133
81.62    154
81.64    95
81.66    129
81.68    270
81.7     398
81.72    492
81.74    587
81.76    606
81.78    650
81.8     676
81.82    673
81.84    571
81.86    505
81.88    478
81.9     397
81.92    280
81.94    266
81.96    277
81.98    324
82.0     340
82.02    347
82.04    278
82.06    247
82.08    206
82.1     185
82.12    158
82.14    255
82.16    341
82.18    400
82.2     436
82.22    461
82.24    440
82.26    479
82.28    430
82.3     392
82.32    324
82.34    282
82.36    265
82.38    262
82.4     258
82.42    244
82.44    267
82.46    329
82.48    338
82.5     348
82.52    329
82.54    325
82.56    369
82.58    382
82.6     404
82.62    400
82.64    395
82.66    414
82.68    422
82.7     385
82.72    351
82.74    334
82.76    320
82.78    334
82.8     363
82.82    357
82.84    345
82.86    329
82.88    270
82.9     211
82.92    205
82.94    209
82.96    224
82.98    250
83.0     376
83.02    450
83.04    473
83.06    441
83.08    436
83.1     479
83.12    464
83.14    445
83.16    409
83.18    390
83.2     441
83.22    413
83.24    368
83.26    285
83.28    267
83.3     254
83.32    210
83.34    246
83.36    198
83.38    202
83.4     219
83.42    248
83.44    305
83.46    312
83.48    403
83.5     452
83.52    537
83.54    530
83.56    416
83.58    389
83.6     312
83.62    259
83.64    216
83.66    223
83.68    270
83.7     274
83.72    352
83.74    285
83.76    256
83.78    317
83.8     348
83.82    426
83.84    468
83.86    539
83.88    577
83.9     590
83.92    579
83.94    475
83.96    396
83.98    367
84.0     356
84.02    347
84.04    268
84.06    227
84.08    181
84.1     193
84.12    198
84.14    216
84.16    248
84.18    284
84.2     300
84.22    345
84.24    336
84.26    291
84.28    280
84.3     367
84.32    399
84.34    445
84.36    484
84.38    452
84.4     364
84.42    372
84.44    346
84.46    278
84.48    271
84.5     370
84.52    406
84.54    457
84.56    467
84.58    446
84.6     385
84.62    368
84.64    369
84.66    384
84.68    345
84.7     424
84.72    455
84.74    467
84.76    445
84.78    465
84.8     416
84.82    435
84.84    471
84.86    483
84.88    486
84.9     511
84.92    496
84.94    482
84.96    445
84.98    350
85.0     304
85.02    347
85.04    311
85.06    359
85.08    402
85.1     412
85.12    396
85.14    423
85.16    423
85.18    364
85.2     404
85.22    411
85.24    464
85.26    552
85.28    551
85.3     592
85.32    505
85.34    461
85.36    426
85.38    338
85.4     273
85.42    209
85.44    275
85.46    285
85.48    289
85.5     313
85.52    266
85.54    294
85.56    316
85.58    357
85.6     394
85.62    396
85.64    463
85.66    419
85.68    392
85.7     327
85.72    316
85.74    316
85.76    308
85.78    339
85.8     383
85.82    367
85.84    383
85.86    368
85.88    374
85.9     330
85.92    303
85.94    296
85.96    293
85.98    350
86.0     417
86.02    464
86.04    547
86.06    582
86.08    635
86.1     613
86.12    604
86.14    605
86.16    603
86.18    671
86.2     680
86.22    740
86.24    745
86.26    749
86.28    781
86.3     703
86.32    739
86.34    708
86.36    727
86.38    770
86.4     836
86.42    928
86.44    950
86.46    1001
86.48    961
86.5     906
86.52    886
86.54    800
86.56    750
86.58    728
86.6     765
86.62    777
86.64    708
86.66    705
86.68    604
86.7     523
86.72    413
86.74    327
86.76    318
86.78    353
86.8     420
86.82    486
86.84    448
86.86    441
86.88    378
86.9     350
86.92    302
86.94    286
86.96    387
86.98    494
87.0     552
87.02    632
87.04    572
87.06    532
87.08    422
87.1     310
87.12    209
87.14    181
87.16    254
87.18    256
87.2     280
87.22    345
87.24    325
87.26    304
87.28    274
87.3     285
87.32    280
87.34    283
87.36    306
87.38    288
87.4     364
87.42    345
87.44    320
87.46    305
87.48    316
87.5     290
87.52    294
87.54    284
87.56    246
87.58    224
87.6     268
87.62    231
87.64    210
87.66    174
87.68    139
87.7     194
87.72    249
87.74    274
87.76    300
87.78    353
87.8     418
87.82    426
87.84    494
87.86    551
87.88    601
87.9     641
87.92    595
87.94    589
87.96    559
87.98    507
88.0     427
88.02    403
88.04    432
88.06    424
88.08    421
88.1     366
88.12    304
88.14    271
88.16    204
88.18    177
88.2     158
88.22    183
88.24    201
88.26    226
88.28    263
88.3     267
88.32    300
88.34    330
88.36    336
88.38    401
88.4     475
88.42    472
88.44    492
88.46    442
88.48    379
88.5     383
88.52    401
88.54    439
88.56    388
88.58    411
88.6     433
88.62    385
88.64    336
88.66    258
88.68    238
88.7     332
88.72    331
88.74    384
88.76    320
88.78    293
88.8     225
88.82    168
88.84    155
88.86    147
88.88    134
88.9     226
88.92    218
88.94    278
88.96    296
88.98    286
89.0     312
89.02    346
89.04    442
89.06    415
89.08    479
89.1     551
89.12    454
89.14    439
89.16    439
89.18    332
89.2     351
89.22    322
89.24    329
89.26    325
89.28    408
89.3     483
89.32    389
89.34    417
89.36    341
89.38    198
89.4     234
89.42    157
89.44    145
89.46    210
89.48    268
89.5     371
89.52    392
89.54    444
89.56    423
89.58    391
89.6     450
89.62    434
89.64    488
89.66    517
89.68    538
89.7     591
89.72    635
89.74    583
89.76    519
89.78    429
89.8     372
89.82    334
89.84    363
89.86    451
89.88    494
89.9     559
89.92    566
89.94    600
89.96    589
89.98    566
90.0     543
