?
5.0      895
5.02     895
5.04     1164
5.06     1101
5.08     1162
5.1      1135
5.12     1149
5.14     1166
5.16     1141
5.18     1178
5.2      1120
5.22     1143
5.24     1152
5.26     1131
5.28     1111
5.3      1072
5.32     1071
5.34     1075
5.36     1040
5.38     1080
5.4      1069
5.42     1105
5.44     1113
5.46     1161
5.48     1135
5.5      1152
5.52     1160
5.54     1156
5.56     1148
5.58     1185
5.6      1154
5.62     1141
5.64     1154
5.66     1168
5.68     1127
5.7      1134
5.72     1120
5.74     1157
5.76     1171
5.78     1208
5.8      1195
5.82     1183
5.84     1208
5.86     1175
5.88     1167
5.9      1144
5.92     1150
5.94     1160
5.96     1139
5.98     1145
6.0      1175
6.02     1211
6.04     1213
6.06     1188
6.08     1190
6.1      1193
6.12     1172
6.14     1124
6.16     1074
6.18     1070
6.2      1124
6.22     1126
6.24     1116
6.26     1145
6.28     1151
6.3      1159
6.32     1134
6.34     1128
6.36     1105
6.38     1094
6.4      1097
6.42     1065
6.44     1124
6.46     1107
6.48     1123
6.5      1100
6.52     1141
6.54     1145
6.56     1176
6.58     1159
6.6      1163
6.62     1139
6.64     1154
6.66     1082
6.68     1110
6.7      1083
6.72     1098
6.74     1063
6.76     1117
6.78     1097
6.8      1127
6.82     1124
6.84     1108
6.86     1086
6.88     1083
6.9      1060
6.92     1042
6.94     1014
6.96     1042
6.98     978
7.0      968
7.02     933
7.04     931
7.06     951
7.08     974
7.1      988
7.12     1018
7.14     1059
7.16     1069
7.18     1047
7.2      1016
7.22     956
7.24     969
7.26     961
7.28     921
7.3      931
7.32     944
7.34     952
7.36     992
7.38     1002
7.4      997
7.42     959
7.44     978
7.46     969
7.48     943
7.5      932
7.52     914
7.54     896
7.56     915
7.58     908
7.6      921
7.62     913
7.64     964
7.66     946
7.68     959
7.7      947
7.72     990
7.74     959
7.76     946
7.78     956
7.8      934
7.82     955
7.84     946
7.86     876
7.88     856
7.9      842
7.92     818
7.94     770
7.96     753
7.98     800
8.0      850
8.02     905
8.04     943
8.06     932
8.08     979
8.1      937
8.12     902
8.14     855
8.16     837
8.18     817
8.2      808
8.22     813
8.24     843
8.26     853
8.28     891
8.3      823
8.32     847
8.34     824
8.36     834
8.38     776
8.4      775
8.42     823
8.44     838
8.46     810
8.48     784
8.5      790
8.52     795
8.54     814
8.56     737
8.58     763
8.6      768
8.62     832
8.64     810
8.66     767
8.68     724
8.7      698
8.72     695
8.74     658
8.76     603
8.78     671
8.8      699
8.82     746
8.84     758
8.86     798
8.88     770
8.9      797
8.92     775
8.94     753
8.96     753
8.98     760
9.0      722
9.02     763
9.04     722
9.06     735
9.08     743
9.1      725
9.12     664
9.14     706
9.16     689
9.18     712
9.2      667
9.22     721
9.24     646
9.26     667
9.28     701
9.3      635
9.32     627
9.34     712
9.36     672
9.38     672
9.4      631
9.42     613
9.44     589
9.46     640
9.48     668
9.5      591
9.52     616
9.54     652
9.56     613
9.58     582
9.6      620
9.62     597
9.64     641
9.66     691
9.68     665
9.7      672
9.72     666
9.74     638
9.76     669
9.78     637
9.8      682
9.82     662
9.84     666
9.86     623
9.88     599
9.9      583
9.92     507
9.94     534
9.96     606
9.98     615
10.0     680
10.02    708
10.04    680
10.06    707
10.08    686
10.1     599
10.12    548
10.14    563
10.16    593
10.18    630
10.2     668
10.22    684
10.24    673
10.26    743
10.28    704
10.3     650
10.32    600
10.34    602
10.36    641
10.38    668
10.4     697
10.42    756
10.44    730
10.46    751
10.48    705
10.5     699
10.52    655
10.54    595
10.56    574
10.58    550
10.6     539
10.62    577
10.64    606
10.66    587
10.68    614
10.7     656
10.72    642
10.74    633
10.76    638
10.78    621
10.8     614
10.82    607
10.84    650
10.86    571
10.88    591
10.9     576
10.92    572
10.94    612
10.96    616
10.98    610
11.0     638
11.02    618
11.04    636
11.06    594
11.08    613
11.1     625
11.12    638
11.14    688
11.16    707
11.18    752
11.2     764
11.22    759
11.24    763
11.26    736
11.28    743
11.3     750
11.32    748
11.34    770
11.36    732
11.38    735
11.4     677
11.42    745
11.44    727
11.46    718
11.48    752
11.5     752
11.52    775
11.54    733
11.56    732
11.58    710
11.6     681
11.62    736
11.64    695
11.66    750
11.68    790
11.7     783
11.72    785
11.74    771
11.76    854
11.78    814
11.8     775
11.82    781
11.84    752
11.86    767
11.88    771
11.9     732
11.92    749
11.94    711
11.96    732
11.98    742
12.0     730
12.02    759
12.04    744
12.06    730
12.08    760
12.1     747
12.12    775
12.14    728
12.16    774
12.18    804
12.2     813
12.22    801
12.24    820
12.26    815
12.28    791
12.3     786
12.32    809
12.34    819
12.36    819
12.38    765
12.4     773
12.42    744
12.44    792
12.46    751
12.48    678
12.5     719
12.52    773
12.54    763
12.56    722
12.58    710
12.6     796
12.62    763
12.64    800
12.66    775
12.68    748
12.7     809
12.72    822
12.74    812
12.76    777
12.78    829
12.8     853
12.82    814
12.84    892
12.86    915
12.88    875
12.9     909
12.92    910
12.94    914
12.96    828
12.98    794
13.0     760
13.02    805
13.04    810
13.06    793
13.08    799
13.1     858
13.12    857
13.14    873
13.16    818
13.18    816
13.2     853
13.22    870
13.24    810
13.26    818
13.28    838
13.3     822
13.32    810
13.34    879
13.36    840
13.38    852
13.4     877
13.42    856
13.44    814
13.46    831
13.48    767
13.5     683
13.52    723
13.54    761
13.56    748
13.58    806
13.6     851
13.62    896
13.64    921
13.66    935
13.68    855
13.7     861
13.72    903
13.74    837
13.76    850
13.78    843
13.8     866
13.82    906
13.84    859
13.86    819
13.88    882
13.9     995
13.92    963
13.94    950
13.96    1003
13.98    992
14.0     1008
14.02    933
14.04    839
14.06    839
14.08    855
14.1     903
14.12    879
14.14    943
14.16    996
14.18    972
14.2     951
14.22    884
14.24    874
14.26    894
14.28    849
14.3     896
14.32    877
14.34    948
14.36    989
14.38    928
14.4     933
14.42    945
14.44    939
14.46    951
14.48    902
14.5     925
14.52    925
14.54    918
14.56    858
14.58    827
14.6     931
14.62    966
14.64    895
14.66    932
14.68    943
14.7     960
14.72    924
14.74    911
14.76    906
14.78    938
14.8     989
14.82    1000
14.84    1007
14.86    1108
14.88    1113
14.9     1095
14.92    1096
14.94    1103
14.96    1037
14.98    955
15.0     958
15.02    1006
15.04    1017
15.06    992
15.08    978
15.1     1012
15.12    1010
15.14    978
15.16    1017
15.18    1015
15.2     1047
15.22    1074
15.24    1025
15.26    976
15.28    981
15.3     954
15.32    972
15.34    1010
15.36    1051
15.38    986
15.4     958
15.42    1036
15.44    1005
15.46    947
15.48    929
15.5     966
15.52    1050
15.54    1030
15.56    985
15.58    943
15.6     965
15.62    1020
15.64    954
15.66    918
15.68    949
15.7     1059
15.72    1115
15.74    1077
15.76    1019
15.78    1014
15.8     1093
15.82    1154
15.84    1190
15.86    1261
15.88    1295
15.9     1332
15.92    1345
15.94    1360
15.96    1393
15.98    1424
16.0     1481
16.02    1618
16.04    1776
16.06    1820
16.08    1862
16.1     1929
16.12    2016
16.14    2202
16.16    2355
16.18    2466
16.2     2666
16.22    2960
16.24    3259
16.26    3616
16.28    4110
16.3     4706
16.32    5488
16.34    6428
16.36    7461
16.38    8756
16.4     10435
16.42    12510
16.44    15155
16.46    18500
16.48    22713
16.5     27927
16.52    33689
16.54    38942
16.56    42496
16.58    43586
16.6     41813
16.62    37336
16.64    30884
16.66    23604
16.68    16866
16.7     11584
16.72    7985
16.74    5848
16.76    4689
16.78    4034
16.8     3556
16.82    3167
16.84    2820
16.86    2528
16.88    2355
16.9     2173
16.92    1970
16.94    1823
16.96    1802
16.98    1737
17.0     1681
17.02    1586
17.04    1492
17.06    1447
17.08    1470
17.1     1488
17.12    1443
17.14    1407
17.16    1444
17.18    1453
17.2     1427
17.22    1327
17.24    1254
17.26    1219
17.28    1220
17.3     1232
17.32    1144
17.34    1100
17.36    1175
17.38    1230
17.4     1249
17.42    1244
17.44    1224
17.46    1177
17.48    1121
17.5     1044
17.52    1004
17.54    996
17.56    1057
17.58    1118
17.6     1125
17.62    1155
17.64    1126
17.66    1130
17.68    1107
17.7     1079
17.72    1130
17.74    1167
17.76    1146
17.78    1131
17.8     1091
17.82    1057
17.84    996
17.86    1003
17.88    1009
17.9     1011
17.92    1025
17.94    1027
17.96    1040
17.98    1029
18.0     1050
18.02    1053
18.04    1128
18.06    1189
18.08    1169
18.1     1084
18.12    986
18.14    874
18.16    823
18.18    757
18.2     756
18.22    827
18.24    947
18.26    1008
18.28    1053
18.3     1060
18.32    1042
18.34    957
18.36    946
18.38    932
18.4     943
18.42    966
18.44    911
18.46    915
18.48    971
18.5     973
18.52    945
18.54    895
18.56    893
18.58    905
18.6     952
18.62    949
18.64    953
18.66    1005
18.68    1032
18.7     1037
18.72    1072
18.74    1056
18.76    1006
18.78    970
18.8     915
18.82    886
18.84    885
18.86    908
18.88    931
18.9     1013
18.92    1101
18.94    1106
18.96    1114
18.98    1081
19.0     1063
19.02    1087
19.04    1053
19.06    1033
19.08    1030
19.1     1055
19.12    1001
19.14    978
19.16    999
19.18    1001
19.2     982
19.22    1039
19.24    1031
19.26    1008
19.28    1035
19.3     1072
19.32    1084
19.34    1042
19.36    1074
19.38    1014
19.4     915
19.42    926
19.44    868
19.46    875
19.48    947
19.5     998
19.52    1037
19.54    1005
19.56    1039
19.58    978
19.6     962
19.62    955
19.64    890
19.66    922
19.68    956
19.7     974
19.72    1012
19.74    989
19.76    996
19.78    1063
19.8     1098
19.82    1090
19.84    1069
19.86    1090
19.88    1083
19.9     1099
19.92    1029
19.94    1045
19.96    1084
19.98    1092
20.0     998
20.02    936
20.04    920
20.06    888
20.08    816
20.1     798
20.12    798
20.14    991
20.16    1053
20.18    1040
20.2     998
20.22    986
20.24    947
20.26    941
20.28    907
20.3     890
20.32    886
20.34    977
20.36    980
20.38    1015
20.4     1006
20.42    993
20.44    983
20.46    1052
20.48    1091
20.5     1063
20.52    1010
20.54    1071
20.56    1083
20.58    1144
20.6     1100
20.62    1112
20.64    1076
20.66    1063
20.68    1019
20.7     1015
20.72    990
20.74    1003
20.76    996
20.78    1015
20.8     1028
20.82    1107
20.84    1101
20.86    1040
20.88    970
20.9     1055
20.92    1072
20.94    1002
20.96    1002
20.98    991
21.0     1026
21.02    1040
21.04    930
21.06    782
21.08    769
21.1     824
21.12    875
21.14    857
21.16    982
21.18    1017
21.2     1040
21.22    1004
21.24    929
21.26    876
21.28    915
21.3     905
21.32    908
21.34    900
21.36    945
21.38    918
21.4     920
21.42    931
21.44    984
21.46    994
21.48    1049
21.5     997
21.52    923
21.54    868
21.56    838
21.58    815
21.6     862
21.62    893
21.64    991
21.66    1027
21.68    995
21.7     906
21.72    890
21.74    904
21.76    983
21.78    991
21.8     987
21.82    924
21.84    963
21.86    961
21.88    907
21.9     890
21.92    895
21.94    904
21.96    966
21.98    940
22.0     825
22.02    776
22.04    835
22.06    896
22.08    975
22.1     992
22.12    948
22.14    942
22.16    897
22.18    810
22.2     688
22.22    620
22.24    634
22.26    725
22.28    860
22.3     937
22.32    941
22.34    938
22.36    895
22.38    875
22.4     890
22.42    816
22.44    823
22.46    819
22.48    842
22.5     828
22.52    812
22.54    793
22.56    786
22.58    808
22.6     823
22.62    784
22.64    761
22.66    660
22.68    683
22.7     649
22.72    741
22.74    705
22.76    736
22.78    739
22.8     802
22.82    830
22.84    829
22.86    823
22.88    835
22.9     798
22.92    788
22.94    727
22.96    771
22.98    742
23.0     800
23.02    758
23.04    701
23.06    686
23.08    664
23.1     647
23.12    650
23.14    662
23.16    658
23.18    682
23.2     721
23.22    763
23.24    758
23.26    763
23.28    765
23.3     793
23.32    816
23.34    731
23.36    637
23.38    632
23.4     666
23.42    729
23.44    771
23.46    763
23.48    775
23.5     836
23.52    825
23.54    720
23.56    624
23.58    631
23.6     636
23.62    609
23.64    607
23.66    542
23.68    594
23.7     691
23.72    718
23.74    655
23.76    613
23.78    618
23.8     626
23.82    683
23.84    667
23.86    600
23.88    672
23.9     728
23.92    769
23.94    699
23.96    644
23.98    614
24.0     677
24.02    716
24.04    706
24.06    639
24.08    679
24.1     674
24.12    683
24.14    611
24.16    596
24.18    580
24.2     588
24.22    622
24.24    688
24.26    688
24.28    724
24.3     710
24.32    702
24.34    687
24.36    619
24.38    611
24.4     592
24.42    657
24.44    627
24.46    555
24.48    529
24.5     491
24.52    501
24.54    531
24.56    592
24.58    641
24.6     686
24.62    715
24.64    688
24.66    627
24.68    609
24.7     550
24.72    518
24.74    523
24.76    548
24.78    515
24.8     552
24.82    605
24.84    640
24.86    677
24.88    589
24.9     517
24.92    488
24.94    499
24.96    525
24.98    525
25.0     541
25.02    514
25.04    518
25.06    588
25.08    526
25.1     535
25.12    517
25.14    465
25.16    430
25.18    415
25.2     420
25.22    398
25.24    439
25.26    473
25.28    523
25.3     547
25.32    536
25.34    495
25.36    440
25.38    486
25.4     496
25.42    520
25.44    485
25.46    522
25.48    528
25.5     523
25.52    579
25.54    568
25.56    537
25.58    580
25.6     599
25.62    659
25.64    656
25.66    604
25.68    464
25.7     386
25.72    426
25.74    478
25.76    481
25.78    543
25.8     526
25.82    554
25.84    559
25.86    514
25.88    492
25.9     426
25.92    479
25.94    513
25.96    478
25.98    490
26.0     480
26.02    510
26.04    526
26.06    450
26.08    434
26.1     386
26.12    443
26.14    490
26.16    471
26.18    501
26.2     521
26.22    473
26.24    402
26.26    334
26.28    335
26.3     376
26.32    423
26.34    453
26.36    437
26.38    440
26.4     448
26.42    492
26.44    501
26.46    488
26.48    409
26.5     404
26.52    389
26.54    392
26.56    439
26.58    389
26.6     436
26.62    455
26.64    494
26.66    468
26.68    424
26.7     403
26.72    413
26.74    389
26.76    403
26.78    368
26.8     376
26.82    446
26.84    535
26.86    550
26.88    560
26.9     557
26.92    591
26.94    490
26.96    452
26.98    426
27.0     449
27.02    583
27.04    544
27.06    487
27.08    458
27.1     437
27.12    466
27.14    403
27.16    397
27.18    433
27.2     548
27.22    639
27.24    576
27.26    478
27.28    376
27.3     256
27.32    288
27.34    342
27.36    386
27.38    488
27.4     549
27.42    591
27.44    508
27.46    412
27.48    327
27.5     313
27.52    394
27.54    515
27.56    578
27.58    589
27.6     516
27.62    428
27.64    319
27.66    326
27.68    386
27.7     456
27.72    501
27.74    512
27.76    502
27.78    446
27.8     447
27.82    389
27.84    387
27.86    402
27.88    395
27.9     364
27.92    341
27.94    284
27.96    289
27.98    337
28.0     426
28.02    442
28.04    503
28.06    472
28.08    444
28.1     419
28.12    409
28.14    365
28.16    400
28.18    453
28.2     456
28.22    502
28.24    540
28.26    505
28.28    465
28.3     397
28.32    366
28.34    330
28.36    421
28.38    470
28.4     477
28.42    495
28.44    483
28.46    445
28.48    478
28.5     445
28.52    435
28.54    420
28.56    404
28.58    420
28.6     345
28.62    346
28.64    365
28.66    367
28.68    486
28.7     471
28.72    455
28.74    463
28.76    337
28.78    314
28.8     217
28.82    269
28.84    379
28.86    435
28.88    538
28.9     565
28.92    599
28.94    610
28.96    487
28.98    399
29.0     310
29.02    341
29.04    440
29.06    483
29.08    561
29.1     623
29.12    663
29.14    621
29.16    516
29.18    431
29.2     408
29.22    348
29.24    319
29.26    327
29.28    329
29.3     346
29.32    313
29.34    276
29.36    349
29.38    417
29.4     477
29.42    467
29.44    502
29.46    528
29.48    510
29.5     453
29.52    406
29.54    385
29.56    387
29.58    315
29.6     282
29.62    270
29.64    294
29.66    355
29.68    393
29.7     425
29.72    561
29.74    596
29.76    576
29.78    497
29.8     456
29.82    443
29.84    427
29.86    455
29.88    450
29.9     441
29.92    454
29.94    419
29.96    413
29.98    373
30.0     416
30.02    460
30.04    523
30.06    570
30.08    560
30.1     546
30.12    512
30.14    486
30.16    428
30.18    369
30.2     394
30.22    399
30.24    465
30.26    442
30.28    388
30.3     411
30.32    383
30.34    396
30.36    402
30.38    386
30.4     454
30.42    460
30.44    504
30.46    494
30.48    408
30.5     373
30.52    320
30.54    360
30.56    402
30.58    421
30.6     499
30.62    498
30.64    518
30.66    500
30.68    424
30.7     403
30.72    370
30.74    370
30.76    408
30.78    469
30.8     464
30.82    436
30.84    447
30.86    392
30.88    410
30.9     457
30.92    428
30.94    450
30.96    483
30.98    443
31.0     393
31.02    360
31.04    332
31.06    295
31.08    339
31.1     348
31.12    308
31.14    320
31.16    333
31.18    344
31.2     387
31.22    370
31.24    372
31.26    402
31.28    412
31.3     381
31.32    342
31.34    351
31.36    418
31.38    438
31.4     430
31.42    384
31.44    314
31.46    326
31.48    313
31.5     405
31.52    526
31.54    589
31.56    681
31.58    659
31.6     586
31.62    509
31.64    375
31.66    300
31.68    233
31.7     269
31.72    349
31.74    403
31.76    464
31.78    477
31.8     466
31.82    429
31.84    352
31.86    307
31.88    325
31.9     390
31.92    477
31.94    556
31.96    495
31.98    495
32.0     410
32.02    283
32.04    227
32.06    183
32.08    245
32.1     332
32.12    377
32.14    485
32.16    554
32.18    661
32.2     678
32.22    663
32.24    638
32.26    552
32.28    506
32.3     470
32.32    407
32.34    458
32.36    506
32.38    506
32.4     505
32.42    478
32.44    474
32.46    494
32.48    485
32.5     490
32.52    507
32.54    554
32.56    556
32.58    619
32.6     579
32.62    497
32.64    513
32.66    462
32.68    436
32.7     398
32.72    393
32.74    415
32.76    491
32.78    557
32.8     529
32.82    493
32.84    542
32.86    516
32.88    523
32.9     509
32.92    491
32.94    535
32.96    591
32.98    562
33.0     633
33.02    620
33.04    651
33.06    645
33.08    572
33.1     544
33.12    546
33.14    573
33.16    663
33.18    745
33.2     822
33.22    843
33.24    914
33.26    927
33.28    991
33.3     1079
33.32    1260
33.34    1430
33.36    1696
33.38    1956
33.4     2285
33.42    2785
33.44    3466
33.46    4332
33.48    5519
33.5     6914
33.52    8478
33.54    9958
33.56    11075
33.58    11671
33.6     11594
33.62    10850
33.64    9536
33.66    7939
33.68    6339
33.7     4835
33.72    3618
33.74    2772
33.76    2155
33.78    1792
33.8     1470
33.82    1295
33.84    1116
33.86    1018
33.88    903
33.9     770
33.92    711
33.94    750
33.96    817
33.98    814
34.0     827
34.02    754
34.04    673
34.06    602
34.08    574
34.1     632
34.12    688
34.14    733
34.16    770
34.18    754
34.2     740
34.22    617
34.24    602
34.26    591
34.28    619
34.3     695
34.32    694
34.34    638
34.36    635
34.38    637
34.4     646
34.42    647
34.44    666
34.46    641
34.48    576
34.5     545
34.52    484
34.54    481
34.56    495
34.58    473
34.6     535
34.62    581
34.64    637
34.66    708
34.68    706
34.7     707
34.72    748
34.74    793
34.76    709
34.78    639
34.8     671
34.82    737
34.84    884
34.86    1045
34.88    1204
34.9     1370
34.92    1567
34.94    1923
34.96    2450
34.98    3230
35.0     4557
35.02    6325
35.04    8310
35.06    10186
35.08    11591
35.1     12082
35.12    11667
35.14    10520
35.16    8757
35.18    6747
35.2     4976
35.22    3516
35.24    2494
35.26    1874
35.28    1457
35.3     1122
35.32    959
35.34    839
35.36    786
35.38    852
35.4     838
35.42    819
35.44    849
35.46    822
35.48    766
35.5     752
35.52    770
35.54    732
35.56    703
35.58    710
35.6     620
35.62    620
35.64    629
35.66    598
35.68    612
35.7     698
35.72    751
35.74    739
35.76    696
35.78    701
35.8     640
35.82    656
35.84    609
35.86    601
35.88    619
35.9     647
35.92    685
35.94    734
35.96    807
35.98    881
36.0     933
36.02    957
36.04    901
36.06    909
36.08    902
36.1     918
36.12    1100
36.14    1235
36.16    1412
36.18    1591
36.2     1774
36.22    1991
36.24    2312
36.26    2800
36.28    3454
36.3     4427
36.32    5720
36.34    7467
36.36    9976
36.38    13209
36.4     16865
36.42    20511
36.44    23435
36.46    24887
36.48    24572
36.5     22601
36.52    19246
36.54    15394
36.56    11591
36.58    8475
36.6     6119
36.62    4604
36.64    3664
36.66    2911
36.68    2257
36.7     1727
36.72    1409
36.74    1203
36.76    1117
36.78    1179
36.8     1199
36.82    1244
36.84    1313
36.86    1237
36.88    1126
36.9     962
36.92    833
36.94    691
36.96    717
36.98    702
37.0     778
37.02    762
37.04    819
37.06    760
37.08    722
37.1     661
37.12    652
37.14    661
37.16    718
37.18    713
37.2     788
37.22    699
37.24    741
37.26    677
37.28    656
37.3     739
37.32    886
37.34    987
37.36    1129
37.38    1222
37.4     1169
37.42    980
37.44    831
37.46    614
37.48    470
37.5     477
37.52    558
37.54    600
37.56    663
37.58    740
37.6     681
37.62    580
37.64    520
37.66    513
37.68    503
37.7     552
37.72    621
37.74    625
37.76    609
37.78    643
37.8     567
37.82    514
37.84    551
37.86    588
37.88    586
37.9     621
37.92    661
37.94    666
37.96    635
37.98    630
38.0     576
38.02    530
38.04    526
38.06    517
38.08    541
38.1     557
38.12    573
38.14    597
38.16    532
38.18    513
38.2     452
38.22    401
38.24    323
38.26    320
38.28    388
38.3     438
38.32    459
38.34    521
38.36    497
38.38    481
38.4     458
38.42    492
38.44    466
38.46    501
38.48    560
38.5     569
38.52    534
38.54    511
38.56    429
38.58    358
38.6     339
38.62    332
38.64    360
38.66    436
38.68    479
38.7     556
38.72    600
38.74    585
38.76    622
38.78    603
38.8     569
38.82    520
38.84    563
38.86    512
38.88    419
38.9     448
38.92    431
38.94    402
38.96    482
38.98    512
39.0     520
39.02    513
39.04    562
39.06    448
39.08    433
39.1     478
39.12    484
39.14    439
39.16    482
39.18    456
39.2     348
39.22    279
39.24    287
39.26    253
39.28    328
39.3     460
39.32    566
39.34    591
39.36    607
39.38    582
39.4     533
39.42    502
39.44    560
39.46    547
39.48    580
39.5     645
39.52    664
39.54    604
39.56    528
39.58    540
39.6     536
39.62    506
39.64    512
39.66    461
39.68    410
39.7     363
39.72    372
39.74    369
39.76    375
39.78    467
39.8     484
39.82    469
39.84    441
39.86    486
39.88    518
39.9     539
39.92    601
39.94    646
39.96    651
39.98    711
40.0     702
40.02    695
40.04    709
40.06    801
40.08    831
40.1     784
40.12    792
40.14    771
40.16    693
40.18    749
40.2     744
40.22    810
40.24    882
40.26    988
40.28    977
40.3     985
40.32    1022
40.34    975
40.36    871
40.38    834
40.4     772
40.42    769
40.44    745
40.46    822
40.48    905
40.5     986
40.52    1053
40.54    1107
40.56    1116
40.58    1036
40.6     1005
40.62    970
40.64    884
40.66    857
40.68    873
40.7     862
40.72    898
40.74    967
40.76    1028
40.78    1044
40.8     1149
40.82    1215
40.84    1208
40.86    1244
40.88    1304
40.9     1342
40.92    1394
40.94    1426
40.96    1504
40.98    1551
41.0     1625
41.02    1708
41.04    1781
41.06    1867
41.08    1996
41.1     2161
41.12    2344
41.14    2601
41.16    2988
41.18    3335
41.2     3767
41.22    4265
41.24    4846
41.26    5552
41.28    6547
41.3     7918
41.32    9546
41.34    11779
41.36    14701
41.38    18501
41.4     23621
41.42    30410
41.44    39184
41.46    49699
41.48    60952
41.5     71209
41.52    78504
41.54    81437
41.56    79328
41.58    72546
41.6     62419
41.62    50698
41.64    39277
41.66    29675
41.68    22282
41.7     16962
41.72    13230
41.74    10508
41.76    8476
41.78    6967
41.8     5868
41.82    5054
41.84    4483
41.86    4059
41.88    3652
41.9     3305
41.92    2987
41.94    2649
41.96    2354
41.98    2143
42.0     2010
42.02    1904
42.04    1828
42.06    1713
42.08    1606
42.1     1509
42.12    1423
42.14    1347
42.16    1363
42.18    1353
42.2     1368
42.22    1332
42.24    1267
42.26    1238
42.28    1125
42.3     1030
42.32    1025
42.34    1042
42.36    1055
42.38    1014
42.4     989
42.42    1014
42.44    972
42.46    985
42.48    907
42.5     928
42.52    960
42.54    953
42.56    892
42.58    808
42.6     756
42.62    745
42.64    709
42.66    717
42.68    742
42.7     834
42.72    838
42.74    902
42.76    874
42.78    858
42.8     852
42.82    800
42.84    757
42.86    723
42.88    706
42.9     697
42.92    685
42.94    726
42.96    706
42.98    701
43.0     737
43.02    711
43.04    792
43.06    802
43.08    849
43.1     851
43.12    836
43.14    798
43.16    786
43.18    695
43.2     662
43.22    612
43.24    701
43.26    684
43.28    722
43.3     713
43.32    661
43.34    683
43.36    668
43.38    638
43.4     591
43.42    616
43.44    657
43.46    660
43.48    695
43.5     716
43.52    692
43.54    684
43.56    607
43.58    587
43.6     488
43.62    478
43.64    492
43.66    574
43.68    662
43.7     746
43.72    802
43.74    810
43.76    812
43.78    752
43.8     656
43.82    599
43.84    620
43.86    596
43.88    613
43.9     662
43.92    630
43.94    603
43.96    618
43.98    592
44.0     528
44.02    502
44.04    505
44.06    437
44.08    419
44.1     465
44.12    448
44.14    460
44.16    522
44.18    589
44.2     601
44.22    635
44.24    674
44.26    669
44.28    588
44.3     607
44.32    601
44.34    556
44.36    523
44.38    538
44.4     575
44.42    564
44.44    594
44.46    555
44.48    511
44.5     532
44.52    546
44.54    524
44.56    497
44.58    563
44.6     598
44.62    567
44.64    582
44.66    614
44.68    625
44.7     604
44.72    564
44.74    560
44.76    557
44.78    640
44.8     697
44.82    765
44.84    871
44.86    1000
44.88    1014
44.9     1047
44.92    1070
44.94    1141
44.96    1299
44.98    1466
45.0     1631
45.02    1759
45.04    1840
45.06    1897
45.08    1778
45.1     1666
45.12    1442
45.14    1258
45.16    1118
45.18    995
45.2     874
45.22    721
45.24    686
45.26    671
45.28    583
45.3     561
45.32    533
45.34    611
45.36    606
45.38    657
45.4     701
45.42    695
45.44    784
45.46    732
45.48    698
45.5     602
45.52    511
45.54    406
45.56    317
45.58    374
45.6     469
45.62    499
45.64    663
45.66    712
45.68    758
45.7     581
45.72    416
45.74    310
45.76    224
45.78    214
45.8     219
45.82    291
45.84    462
45.86    494
45.88    539
45.9     533
45.92    566
45.94    597
45.96    548
45.98    574
46.0     541
46.02    535
46.04    478
46.06    402
46.08    395
46.1     376
46.12    386
46.14    413
46.16    467
46.18    514
46.2     486
46.22    487
46.24    490
46.26    450
46.28    418
46.3     356
46.32    400
46.34    434
46.36    453
46.38    448
46.4     435
46.42    488
46.44    508
46.46    493
46.48    491
46.5     490
46.52    573
46.54    606
46.56    600
46.58    546
46.6     493
46.62    432
46.64    382
46.66    330
46.68    290
46.7     365
46.72    426
46.74    500
46.76    530
46.78    525
46.8     519
46.82    439
46.84    446
46.86    339
46.88    318
46.9     344
46.92    322
46.94    375
46.96    417
46.98    491
47.0     602
47.02    629
47.04    622
47.06    552
47.08    555
47.1     468
47.12    374
47.14    342
47.16    430
47.18    426
47.2     502
47.22    540
47.24    618
47.26    637
47.28    610
47.3     538
47.32    418
47.34    335
47.36    289
47.38    196
47.4     257
47.42    383
47.44    530
47.46    628
47.48    703
47.5     765
47.52    674
47.54    547
47.56    433
47.58    336
47.6     276
47.62    280
47.64    335
47.66    444
47.68    552
47.7     614
47.72    634
47.74    626
47.76    575
47.78    516
47.8     406
47.82    373
47.84    387
47.86    410
47.88    502
47.9     528
47.92    656
47.94    730
47.96    720
47.98    688
48.0     646
48.02    627
48.04    557
48.06    486
48.08    471
48.1     473
48.12    508
48.14    473
48.16    432
48.18    472
48.2     532
48.22    505
48.24    462
48.26    458
48.28    536
48.3     546
48.32    536
48.34    523
48.36    544
48.38    571
48.4     535
48.42    456
48.44    422
48.46    345
48.48    313
48.5     272
48.52    313
48.54    345
48.56    427
48.58    548
48.6     657
48.62    760
48.64    823
48.66    754
48.68    684
48.7     599
48.72    490
48.74    310
48.76    287
48.78    294
48.8     378
48.82    464
48.84    567
48.86    665
48.88    717
48.9     655
48.92    601
48.94    444
48.96    369
48.98    203
49.0     151
49.02    140
49.04    236
49.06    329
49.08    399
49.1     443
49.12    542
49.14    554
49.16    526
49.18    429
49.2     397
49.22    459
49.24    461
49.26    458
49.28    433
49.3     481
49.32    510
49.34    523
49.36    549
49.38    527
49.4     566
49.42    582
49.44    495
49.46    469
49.48    396
49.5     376
49.52    337
49.54    291
49.56    284
49.58    307
49.6     365
49.62    328
49.64    317
49.66    428
49.68    495
49.7     580
49.72    605
49.74    596
49.76    627
49.78    614
49.8     521
49.82    385
49.84    326
49.86    329
49.88    297
49.9     269
49.92    329
49.94    418
49.96    517
49.98    555
50.0     537
50.02    543
50.04    555
50.06    489
50.08    381
50.1     271
50.12    310
50.14    337
50.16    338
50.18    335
50.2     374
50.22    457
50.24    460
50.26    414
50.28    292
50.3     254
50.32    294
50.34    365
50.36    374
50.38    411
50.4     485
50.42    577
50.44    644
50.46    620
50.48    508
50.5     439
50.52    388
50.54    392
50.56    340
50.58    317
50.6     365
50.62    470
50.64    585
50.66    556
50.68    525
50.7     445
50.72    449
50.74    453
50.76    431
50.78    462
50.8     489
50.82    496
50.84    511
50.86    507
50.88    493
50.9     516
50.92    489
50.94    451
50.96    466
50.98    466
51.0     430
51.02    420
51.04    377
51.06    451
51.08    484
51.1     481
51.12    403
51.14    390
51.16    376
51.18    419
51.2     393
51.22    371
51.24    449
51.26    534
51.28    559
51.3     564
51.32    514
51.34    537
51.36    564
51.38    529
51.4     477
51.42    435
51.44    455
51.46    451
51.48    452
51.5     479
51.52    499
51.54    597
51.56    665
51.58    642
51.6     660
51.62    578
51.64    566
51.66    521
51.68    515
51.7     518
51.72    585
51.74    593
51.76    664
51.78    671
51.8     689
51.82    633
51.84    646
51.86    620
51.88    663
51.9     623
51.92    584
51.94    517
51.96    519
51.98    463
52.0     415
52.02    334
52.04    349
52.06    387
52.08    483
52.1     490
52.12    557
52.14    609
52.16    714
52.18    741
52.2     699
52.22    627
52.24    593
52.26    543
52.28    561
52.3     459
52.32    519
52.34    555
52.36    636
52.38    712
52.4     745
52.42    703
52.44    765
52.46    663
52.48    525
52.5     426
52.52    371
52.54    354
52.56    410
52.58    473
52.6     550
52.62    606
52.64    725
52.66    706
52.68    684
52.7     702
52.72    610
52.74    593
52.76    583
52.78    450
52.8     422
52.82    400
52.84    443
52.86    470
52.88    556
52.9     654
52.92    787
52.94    867
52.96    910
52.98    833
53.0     832
53.02    733
53.04    658
53.06    569
53.08    604
53.1     660
53.12    798
53.14    860
53.16    961
53.18    1073
53.2     1241
53.22    1340
53.24    1510
53.26    1718
53.28    1933
53.3     2187
53.32    2567
53.34    2904
53.36    3412
53.38    4049
53.4     4736
53.42    5415
53.44    6038
53.46    6519
53.48    6700
53.5     6621
53.52    6221
53.54    5524
53.56    4854
53.58    4177
53.6     3478
53.62    2943
53.64    2485
53.66    2182
53.68    1960
53.7     1736
53.72    1454
53.74    1225
53.76    1119
53.78    1051
53.8     940
53.82    873
53.84    755
53.86    727
53.88    777
53.9     708
53.92    615
53.94    589
53.96    617
53.98    690
54.0     730
54.02    715
54.04    750
54.06    832
54.08    848
54.1     741
54.12    635
54.14    552
54.16    560
54.18    539
54.2     448
54.22    394
54.24    499
54.26    554
54.28    550
54.3     548
54.32    540
54.34    564
54.36    652
54.38    581
54.4     496
54.42    520
54.44    538
54.46    535
54.48    531
54.5     513
54.52    524
54.54    557
54.56    568
54.58    509
54.6     521
54.62    566
54.64    451
54.66    478
54.68    470
54.7     450
54.72    487
54.74    506
54.76    436
54.78    411
54.8     408
54.82    370
54.84    309
54.86    369
54.88    375
54.9     400
54.92    438
54.94    457
54.96    471
54.98    507
55.0     446
55.02    434
55.04    454
55.06    442
55.08    426
55.1     400
55.12    405
55.14    501
55.16    576
55.18    521
55.2     478
55.22    441
55.24    400
55.26    398
55.28    300
55.3     232
55.32    254
55.34    383
55.36    490
55.38    510
55.4     590
55.42    637
55.44    690
55.46    707
55.48    644
55.5     610
55.52    577
55.54    585
55.56    606
55.58    627
55.6     614
55.62    579
55.64    506
55.66    421
55.68    417
55.7     366
55.72    299
55.74    223
55.76    217
55.78    309
55.8     343
55.82    415
55.84    475
55.86    559
55.88    624
55.9     635
55.92    617
55.94    487
55.96    379
55.98    390
56.0     382
56.02    374
56.04    445
56.06    503
56.08    542
56.1     635
56.12    643
56.14    587
56.16    576
56.18    583
56.2     502
56.22    394
56.24    429
56.26    438
56.28    461
56.3     475
56.32    458
56.34    532
56.36    594
56.38    595
56.4     566
56.42    541
56.44    586
56.46    599
56.48    520
56.5     447
56.52    409
56.54    463
56.56    467
56.58    465
56.6     527
56.62    549
56.64    608
56.66    631
56.68    629
56.7     597
56.72    616
56.74    616
56.76    534
56.78    515
56.8     521
56.82    513
56.84    517
56.86    542
56.88    560
56.9     551
56.92    685
56.94    685
56.96    665
56.98    648
57.0     613
57.02    598
57.04    540
57.06    522
57.08    496
57.1     537
57.12    601
57.14    632
57.16    648
57.18    627
57.2     648
57.22    644
57.24    621
57.26    691
57.28    738
57.3     732
57.32    704
57.34    708
57.36    632
57.38    566
57.4     530
57.42    412
57.44    365
57.46    386
57.48    440
57.5     520
57.52    614
57.54    749
57.56    818
57.58    913
57.6     950
57.62    906
57.64    908
57.66    910
57.68    931
57.7     937
57.72    910
57.74    909
57.76    872
57.78    972
57.8     1014
57.82    1103
57.84    1196
57.86    1306
57.88    1377
57.9     1473
57.92    1625
57.94    1766
57.96    1868
57.98    2067
58.0     2277
58.02    2479
58.04    2759
58.06    3162
58.08    3605
58.1     4243
58.12    5076
58.14    6004
58.16    6986
58.18    8228
58.2     9624
58.22    11023
58.24    12437
58.26    13607
58.28    14328
58.3     14631
58.32    14382
58.34    13528
58.36    12340
58.38    10939
58.4     9454
58.42    8057
58.44    6837
58.46    5769
58.48    4878
58.5     4211
58.52    3585
58.54    3108
58.56    2792
58.58    2433
58.6     2184
58.62    2033
58.64    1915
58.66    1741
58.68    1625
58.7     1542
58.72    1419
58.74    1389
58.76    1280
58.78    1124
58.8     1078
58.82    1082
58.84    989
58.86    909
58.88    886
58.9     855
58.92    837
58.94    826
58.96    776
58.98    728
59.0     750
59.02    749
59.04    719
59.06    711
59.08    698
59.1     643
59.12    612
59.14    599
59.16    578
59.18    555
59.2     536
59.22    517
59.24    526
59.26    536
59.28    569
59.3     589
59.32    646
59.34    657
59.36    649
59.38    656
59.4     635
59.42    633
59.44    618
59.46    643
59.48    622
59.5     614
59.52    616
59.54    524
59.56    445
59.58    432
59.6     384
59.62    386
59.64    418
59.66    448
59.68    484
59.7     553
59.72    607
59.74    570
59.76    561
59.78    535
59.8     497
59.82    453
59.84    455
59.86    423
59.88    460
59.9     493
59.92    486
59.94    476
59.96    501
59.98    403
60.0     388
60.02    388
60.04    461
60.06    506
60.08    529
60.1     566
60.12    593
60.14    651
60.16    653
60.18    575
60.2     558
60.22    531
60.24    498
60.26    432
60.28    337
60.3     276
60.32    309
60.34    334
60.36    360
60.38    388
60.4     442
60.42    500
60.44    537
60.46    593
60.48    607
60.5     599
60.52    651
60.54    583
60.56    538
60.58    509
60.6     499
60.62    478
60.64    413
60.66    441
60.68    434
60.7     405
60.72    389
60.74    362
60.76    358
60.78    436
60.8     413
60.82    395
60.84    362
60.86    423
60.88    460
60.9     410
60.92    412
60.94    454
60.96    456
60.98    539
61.0     527
61.02    561
61.04    574
61.06    627
61.08    635
61.1     569
61.12    572
61.14    549
61.16    487
61.18    482
61.2     492
61.22    525
61.24    500
61.26    564
61.28    531
61.3     546
61.32    576
61.34    628
61.36    655
61.38    680
61.4     698
61.42    666
61.44    570
61.46    564
61.48    510
61.5     501
61.52    486
61.54    572
61.56    631
61.58    703
61.6     760
61.62    798
61.64    773
61.66    787
61.68    843
61.7     859
61.72    904
61.74    1028
61.76    1123
61.78    1292
61.8     1455
61.82    1673
61.84    1858
61.86    2058
61.88    2416
61.9     2823
61.92    3274
61.94    3967
61.96    4892
61.98    6122
62.0     7624
62.02    9559
62.04    11741
62.06    13897
62.08    15903
62.1     17335
62.12    17874
62.14    17693
62.16    16570
62.18    14766
62.2     12570
62.22    10375
62.24    8356
62.26    6637
62.28    5292
62.3     4251
62.32    3442
62.34    2929
62.36    2465
62.38    2145
62.4     1886
62.42    1661
62.44    1489
62.46    1377
62.48    1220
62.5     1070
62.52    966
62.54    913
62.56    859
62.58    794
62.6     759
62.62    721
62.64    699
62.66    701
62.68    680
62.7     687
62.72    729
62.74    802
62.76    793
62.78    772
62.8     712
62.82    658
62.84    538
62.86    424
62.88    386
62.9     369
62.92    369
62.94    406
62.96    438
62.98    550
63.0     621
63.02    720
63.04    749
63.06    702
63.08    728
63.1     641
63.12    585
63.14    510
63.16    423
63.18    400
63.2     399
63.22    388
63.24    441
63.26    429
63.28    457
63.3     421
63.32    516
63.34    540
63.36    509
63.38    550
63.4     529
63.42    478
63.44    457
63.46    399
63.48    334
63.5     268
63.52    326
63.54    345
63.56    342
63.58    418
63.6     459
63.62    522
63.64    602
63.66    678
63.68    664
63.7     636
63.72    625
63.74    604
63.76    559
63.78    504
63.8     450
63.82    473
63.84    519
63.86    515
63.88    472
63.9     482
63.92    440
63.94    414
63.96    424
63.98    430
64.0     431
64.02    504
64.04    538
64.06    541
64.08    557
64.1     610
64.12    532
64.14    464
64.16    459
64.18    502
64.2     494
64.22    489
64.24    477
64.26    446
64.28    469
64.3     582
64.32    638
64.34    668
64.36    686
64.38    721
64.4     676
64.42    665
64.44    669
64.46    621
64.48    640
64.5     716
64.52    818
64.54    910
64.56    1043
64.58    1198
64.6     1318
64.62    1561
64.64    1810
64.66    2095
64.68    2486
64.7     2916
64.72    3418
64.74    3825
64.76    4228
64.78    4498
64.8     4556
64.82    4510
64.84    4217
64.86    3785
64.88    3360
64.9     2893
64.92    2454
64.94    2022
64.96    1691
64.98    1486
65.0     1308
65.02    1190
65.04    1065
65.06    988
65.08    938
65.1     798
65.12    697
65.14    681
65.16    608
65.18    598
65.2     582
65.22    527
65.24    517
65.26    490
65.28    422
65.3     367
65.32    306
65.34    356
65.36    400
65.38    416
65.4     490
65.42    480
65.44    554
65.46    571
65.48    537
65.5     552
65.52    430
65.54    368
65.56    377
65.58    275
65.6     270
65.62    265
65.64    305
65.66    321
65.68    334
65.7     444
65.72    450
65.74    428
65.76    490
65.78    459
65.8     484
65.82    477
65.84    405
65.86    392
65.88    327
65.9     263
65.92    228
65.94    200
65.96    263
65.98    300
66.0     317
66.02    387
66.04    371
66.06    400
66.08    348
66.1     294
66.12    269
66.14    292
66.16    332
66.18    293
66.2     341
66.22    389
66.24    437
66.26    472
66.28    514
66.3     545
66.32    523
66.34    545
66.36    536
66.38    477
66.4     477
66.42    420
66.44    353
66.46    290
66.48    246
66.5     230
66.52    251
66.54    244
66.56    257
66.58    249
66.6     265
66.62    341
66.64    342
66.66    430
66.68    493
66.7     538
66.72    514
66.74    452
66.76    444
66.78    396
66.8     346
66.82    384
66.84    354
66.86    365
66.88    359
66.9     354
66.92    321
66.94    317
66.96    289
66.98    296
67.0     300
67.02    374
67.04    410
67.06    377
67.08    331
67.1     312
67.12    339
67.14    338
67.16    336
67.18    339
67.2     327
67.22    316
67.24    366
67.26    368
67.28    413
67.3     381
67.32    451
67.34    496
67.36    534
67.38    448
67.4     353
67.42    290
67.44    301
67.46    292
67.48    278
67.5     226
67.52    274
67.54    318
67.56    357
67.58    381
67.6     429
67.62    442
67.64    487
67.66    489
67.68    454
67.7     449
67.72    405
67.74    380
67.76    366
67.78    354
67.8     373
67.82    316
67.84    375
67.86    404
67.88    438
67.9     440
67.92    380
67.94    343
67.96    321
67.98    321
68.0     284
68.02    300
68.04    388
68.06    474
68.08    514
68.1     540
68.12    499
68.14    515
68.16    508
68.18    459
68.2     431
68.22    455
68.24    446
68.26    393
68.28    328
68.3     357
68.32    329
68.34    408
68.36    449
68.38    453
68.4     514
68.42    507
68.44    560
68.46    570
68.48    583
68.5     627
68.52    653
68.54    717
68.56    755
68.58    732
68.6     723
68.62    727
68.64    761
68.66    736
68.68    753
68.7     758
68.72    836
68.74    914
68.76    1017
68.78    1111
68.8     1242
68.82    1351
68.84    1522
68.86    1749
68.88    2034
68.9     2297
68.92    2673
68.94    3050
68.96    3377
68.98    3668
69.0     3859
69.02    3958
69.04    3906
69.06    3729
69.08    3452
69.1     3089
69.12    2661
69.14    2234
69.16    1873
69.18    1579
69.2     1329
69.22    1206
69.24    1117
69.26    1053
69.28    1054
69.3     1019
69.32    955
69.34    959
69.36    923
69.38    883
69.4     858
69.42    832
69.44    782
69.46    726
69.48    663
69.5     590
69.52    600
69.54    598
69.56    564
69.58    573
69.6     524
69.62    523
69.64    476
69.66    425
69.68    369
69.7     339
69.72    315
69.74    331
69.76    360
69.78    421
69.8     487
69.82    578
69.84    629
69.86    631
69.88    596
69.9     521
69.92    500
69.94    500
69.96    501
69.98    490
70.0     484
70.02    465
70.04    484
70.06    460
70.08    379
70.1     367
70.12    334
70.14    303
70.16    330
70.18    372
70.2     440
70.22    510
70.24    551
70.26    573
70.28    588
70.3     612
70.32    577
70.34    607
70.36    621
70.38    639
70.4     595
70.42    653
70.44    665
70.46    731
70.48    846
70.5     1007
70.52    1175
70.54    1345
70.56    1472
70.58    1623
70.6     1803
70.62    2028
70.64    2123
70.66    2212
70.68    2221
70.7     2124
70.72    1944
70.74    1730
70.76    1499
70.78    1338
70.8     1148
70.82    1008
70.84    869
70.86    731
70.88    677
70.9     624
70.92    568
70.94    514
70.96    503
70.98    502
71.0     482
71.02    508
71.04    482
71.06    502
71.08    551
71.1     522
71.12    455
71.14    408
71.16    397
71.18    363
71.2     335
71.22    364
71.24    401
71.26    457
71.28    482
71.3     496
71.32    508
71.34    518
71.36    491
71.38    486
71.4     482
71.42    492
71.44    453
71.46    423
71.48    399
71.5     389
71.52    379
71.54    366
71.56    360
71.58    354
71.6     326
71.62    323
71.64    319
71.66    317
71.68    354
71.7     425
71.72    502
71.74    515
71.76    611
71.78    668
71.8     744
71.82    723
71.84    713
71.86    684
71.88    668
71.9     616
71.92    525
71.94    497
71.96    557
71.98    536
72.0     461
72.02    384
72.04    380
72.06    423
72.08    426
72.1     532
72.12    633
72.14    783
72.16    848
72.18    929
72.2     1043
72.22    1159
72.24    1239
72.26    1384
72.28    1451
72.3     1593
72.32    1733
72.34    1888
72.36    2086
72.38    2441
72.4     2794
72.42    3099
72.44    3525
72.46    3939
72.48    4290
72.5     4589
72.52    4768
72.54    4815
72.56    4717
72.58    4470
72.6     4109
72.62    3761
72.64    3360
72.66    2930
72.68    2560
72.7     2195
72.72    1917
72.74    1708
72.76    1503
72.78    1286
72.8     1164
72.82    1099
72.84    953
72.86    869
72.88    835
72.9     783
72.92    808
72.94    781
72.96    661
72.98    601
73.0     621
73.02    608
73.04    588
73.06    562
73.08    522
73.1     491
73.12    490
73.14    453
73.16    470
73.18    566
73.2     698
73.22    679
73.24    647
73.26    632
73.28    656
73.3     681
73.32    742
73.34    810
73.36    942
73.38    1002
73.4     1016
73.42    981
73.44    970
73.46    1063
73.48    1119
73.5     1081
73.52    995
73.54    922
73.56    856
73.58    761
73.6     692
73.62    654
73.64    565
73.66    502
73.68    429
73.7     372
73.72    311
73.74    295
73.76    303
73.78    352
73.8     401
73.82    458
73.84    476
73.86    470
73.88    511
73.9     592
73.92    587
73.94    572
73.96    596
73.98    655
74.0     677
74.02    762
74.04    842
74.06    929
74.08    1021
74.1     1211
74.12    1354
74.14    1599
74.16    1837
74.18    2088
74.2     2201
74.22    2349
74.24    2453
74.26    2464
74.28    2357
74.3     2288
74.32    2161
74.34    1947
74.36    1714
74.38    1542
74.4     1334
74.42    1271
74.44    1165
74.46    1069
74.48    984
74.5     992
74.52    943
74.54    835
74.56    863
74.58    903
74.6     877
74.62    927
74.64    927
74.66    953
74.68    1003
74.7     1023
74.72    1016
74.74    1069
74.76    1219
74.78    1290
74.8     1367
74.82    1576
74.84    1695
74.86    1839
74.88    1949
74.9     1948
74.92    1992
74.94    1981
74.96    1958
74.98    1821
75.0     1681
75.02    1581
75.04    1384
75.06    1257
75.08    1120
75.1     945
75.12    835
75.14    723
75.16    608
75.18    521
75.2     486
75.22    566
75.24    582
75.26    615
75.28    583
75.3     515
75.32    502
75.34    435
75.36    364
75.38    409
75.4     475
75.42    580
75.44    529
75.46    512
75.48    410
75.5     388
75.52    378
75.54    324
75.56    365
75.58    465
75.6     499
75.62    540
75.64    508
75.66    528
75.68    481
75.7     487
75.72    418
75.74    333
75.76    292
75.78    242
75.8     161
75.82    158
75.84    129
75.86    175
75.88    139
75.9     209
75.92    221
75.94    285
75.96    411
75.98    442
76.0     468
76.02    512
76.04    504
76.06    541
76.08    485
76.1     496
76.12    503
76.14    504
76.16    495
76.18    386
76.2     346
76.22    333
76.24    244
76.26    228
76.28    230
76.3     182
76.32    204
76.34    204
76.36    183
76.38    172
76.4     231
76.42    295
76.44    303
76.46    361
76.48    432
76.5     369
76.52    396
76.54    468
76.56    412
76.58    423
76.6     437
76.62    466
76.64    434
76.66    424
76.68    413
76.7     334
76.72    315
76.74    352
76.76    312
76.78    394
76.8     426
76.82    406
76.84    404
76.86    410
76.88    372
76.9     357
76.92    366
76.94    414
76.96    421
76.98    488
77.0     517
77.02    461
77.04    544
77.06    551
77.08    566
77.1     626
77.12    705
77.14    743
77.16    771
77.18    818
77.2     837
77.22    891
77.24    1048
77.26    1124
77.28    1242
77.3     1383
77.32    1569
77.34    1755
77.36    2063
77.38    2352
77.4     2715
77.42    3142
77.44    3679
77.46    4152
77.48    4645
77.5     5035
77.52    5335
77.54    5507
77.56    5605
77.58    5406
77.6     5110
77.62    4714
77.64    4295
77.66    3743
77.68    3334
77.7     2885
77.72    2536
77.74    2191
77.76    1977
77.78    1716
77.8     1513
77.82    1353
77.84    1157
77.86    982
77.88    897
77.9     800
77.92    759
77.94    653
77.96    691
77.98    661
78.0     628
78.02    624
78.04    569
78.06    483
78.08    378
78.1     319
78.12    312
78.14    272
78.16    361
78.18    353
78.2     344
78.22    349
78.24    308
78.26    277
78.28    295
78.3     344
78.32    393
78.34    410
78.36    487
78.38    425
78.4     388
78.42    315
78.44    255
78.46    280
78.48    320
78.5     319
78.52    298
78.54    346
78.56    381
78.58    363
78.6     306
78.62    283
78.64    261
78.66    302
78.68    280
78.7     282
78.72    325
78.74    438
78.76    430
78.78    410
78.8     321
78.82    289
78.84    229
78.86    213
78.88    242
78.9     250
78.92    252
78.94    318
78.96    295
78.98    294
79.0     237
79.02    225
79.04    270
79.06    353
79.08    463
79.1     487
79.12    485
79.14    481
79.16    509
79.18    425
79.2     341
79.22    281
79.24    341
79.26    421
79.28    444
79.3     447
79.32    415
79.34    314
79.36    365
79.38    288
79.4     239
79.42    274
79.44    447
79.46    452
79.48    428
79.5     374
79.52    349
79.54    300
79.56    310
79.58    267
79.6     199
79.62    297
79.64    332
79.66    197
79.68    139
79.7     96
79.72    145
79.74    209
79.76    267
79.78    312
79.8     361
79.82    464
79.84    527
79.86    516
79.88    569
79.9     616
79.92    673
79.94    728
79.96    724
79.98    681
80.0     624
80.02    546
80.04    501
80.06    436
80.08    394
80.1     398
80.12    386
80.14    391
80.16    390
80.18    367
80.2     332
80.22    305
80.24    275
80.26    291
80.28    308
80.3     342
80.32    337
80.34    338
80.36    364
80.38    322
80.4     374
80.42    361
80.44    311
80.46    310
80.48    336
80.5     239
80.52    208
80.54    149
80.56    155
80.58    213
80.6     311
80.62    373
80.64    318
80.66    384
80.68    422
80.7     320
80.72    311
80.74    299
80.76    307
80.78    386
80.8     344
80.82    380
80.84    263
80.86    291
80.88    268
80.9     221
80.92    198
80.94    218
80.96    234
80.98    244
81.0     192
81.02    201
81.04    127
81.06    95
81.08    134
81.1     203
81.12    210
81.14    248
81.16    307
81.18    295
81.2     284
81.22    266
81.24    290
81.26    318
81.28    416
81.3     514
81.32    525
81.34    435
81.36    401
81.38    369
81.4     318
81.42    312
81.44    312
81.46    300
81.48    296
81.5     292
81.52    219
81.54    119
81.56    108
81.58    193
81.6     224
81.62    212
81.64    194
81.66    193
81.68    252
81.7     246
81.72    251
81.74    273
81.76    349
81.78    420
81.8     409
81.82    323
81.84    258
81.86    248
81.88    253
81.9     236
81.92    227
81.94    317
81.96    413
81.98    413
82.0     410
82.02    334
82.04    273
82.06    274
82.08    196
82.1     196
82.12    204
82.14    287
82.16    296
82.18    240
82.2     114
82.22    33
82.24    5
82.26    48
82.28    53
82.3     150
82.32    287
82.34    388
82.36    396
82.38    354
82.4     249
82.42    241
82.44    231
82.46    218
82.48    252
82.5     344
82.52    394
82.54    391
82.56    324
82.58    324
82.6     341
82.62    341
82.64    346
82.66    334
82.68    393
82.7     392
82.72    360
82.74    274
82.76    118
82.78    121
82.8     122
82.82    121
82.84    104
82.86    153
82.88    171
82.9     195
82.92    202
82.94    181
82.96    129
82.98    201
83.0     215
83.02    262
83.04    231
83.06    259
83.08    255
83.1     279
83.12    258
83.14    326
83.16    312
83.18    371
83.2     365
83.22    351
83.24    312
83.26    241
83.28    248
83.3     221
83.32    231
83.34    269
83.36    270
83.38    300
83.4     243
83.42    226
83.44    158
83.46    86
83.48    132
83.5     121
83.52    204
83.54    213
83.56    298
83.58    385
83.6     408
83.62    409
83.64    401
83.66    422
83.68    409
83.7     409
83.72    420
83.74    361
83.76    334
83.78    292
83.8     264
83.82    241
83.84    203
83.86    215
83.88    182
83.9     209
83.92    194
83.94    212
83.96    191
83.98    173
84.0     175
84.02    205
84.04    196
84.06    218
84.08    206
84.1     180
84.12    141
84.14    138
84.16    177
84.18    147
84.2     166
84.22    209
84.24    251
84.26    239
84.28    311
84.3     301
84.32    308
84.34    264
84.36    331
84.38    374
84.4     446
84.42    388
84.44    368
84.46    318
84.48    341
84.5     268
84.52    235
84.54    122
84.56    210
84.58    316
84.6     382
84.62    340
84.64    283
84.66    199
84.68    258
84.7     241
84.72    216
84.74    232
84.76    353
84.78    400
84.8     438
84.82    422
84.84    365
84.86    341
84.88    461
84.9     490
84.92    540
84.94    516
84.96    483
84.98    476
85.0     404
85.02    313
85.04    303
85.06    281
85.08    258
85.1     292
85.12    366
85.14    286
85.16    284
85.18    288
85.2     202
85.22    159
85.24    187
85.26    138
85.28    143
85.3     199
85.32    274
85.34    269
85.36    314
85.38    305
85.4     229
85.42    215
85.44    213
85.46    209
85.48    208
85.5     215
85.52    232
85.54    247
85.56    296
85.58    300
85.6     299
85.62    284
85.64    323
85.66    359
85.68    309
85.7     303
85.72    306
85.74    343
85.76    337
85.78    276
85.8     257
85.82    224
85.84    234
85.86    215
85.88    177
85.9     231
85.92    308
85.94    377
85.96    377
85.98    349
86.0     364
86.02    413
86.04    376
86.06    370
86.08    328
86.1     358
86.12    362
86.14    404
86.16    483
86.18    549
86.2     582
86.22    631
86.24    636
86.26    672
86.28    657
86.3     667
86.32    710
86.34    798
86.36    920
86.38    989
86.4     1013
86.42    1035
86.44    1046
86.46    1055
86.48    1022
86.5     1000
86.52    967
86.54    887
86.56    822
86.58    744
86.6     637
86.62    585
86.64    514
86.66    404
86.68    357
86.7     356
86.72    286
86.74    217
86.76    213
86.78    176
86.8     171
86.82    286
86.84    361
86.86    415
86.88    496
86.9     503
86.92    491
86.94    466
86.96    407
86.98    285
87.0     270
87.02    295
87.04    280
87.06    310
87.08    299
87.1     258
87.12    256
87.14    200
87.16    176
87.18    99
87.2     115
87.22    156
87.24    194
87.26    236
87.28    250
87.3     274
87.32    286
87.34    269
87.36    324
87.38    317
87.4     393
87.42    455
87.44    479
87.46    455
87.48    363
87.5     362
87.52    318
87.54    294
87.56    316
87.58    368
87.6     371
87.62    354
87.64    315
87.66    259
87.68    137
87.7     142
87.72    108
87.74    125
87.76    200
87.78    250
87.8     256
87.82    285
87.84    224
87.86    205
87.88    194
87.9     169
87.92    119
87.94    117
87.96    180
87.98    192
88.0     223
88.02    229
88.04    191
88.06    222
88.08    266
88.1     250
88.12    298
88.14    320
88.16    302
88.18    282
88.2     275
88.22    270
88.24    211
88.26    190
88.28    131
88.3     167
88.32    204
88.34    120
88.36    76
88.38    83
88.4     86
88.42    150
88.44    225
88.46    260
88.48    246
88.5     332
88.52    364
88.54    350
88.56    401
88.58    327
88.6     294
88.62    307
88.64    325
88.66    304
88.68    263
88.7     253
88.72    256
88.74    289
88.76    326
88.78    260
88.8     224
88.82    206
88.84    221
88.86    274
88.88    289
88.9     324
88.92    363
88.94    395
88.96    339
88.98    307
89.0     217
89.02    168
89.04    72
89.06    73
89.08    124
89.1     151
89.12    228
89.14    255
89.16    273
89.18    276
89.2     274
89.22    270
89.24    207
89.26    215
89.28    260
89.3     272
89.32    420
89.34    441
89.36    434
89.38    377
89.4     357
89.42    326
89.44    263
89.46    243
89.48    225
89.5     251
89.52    344
89.54    343
89.56    338
89.58    384
89.6     302
89.62    277
89.64    325
89.66    291
89.68    294
89.7     368
89.72    410
89.74    392
89.76    445
89.78    478
89.8     361
89.82    310
89.84    335
89.86    267
89.88    317
89.9     389
89.92    392
89.94    491
89.96    528
89.98    499
90.0     475
