?
5.0      864
5.02     864
5.04     1122
5.06     1029
5.08     1057
5.1      1035
5.12     1061
5.14     1077
5.16     1063
5.18     1031
5.2      1044
5.22     1056
5.24     1077
5.26     1068
5.28     1077
5.3      1044
5.32     1087
5.34     1078
5.36     1128
5.38     1121
5.4      1162
5.42     1146
5.44     1159
5.46     1121
5.48     1134
5.5      1128
5.52     1091
5.54     1062
5.56     1081
5.58     1074
5.6      1063
5.62     1047
5.64     1034
5.66     1046
5.68     1063
5.7      1080
5.72     1082
5.74     1119
5.76     1132
5.78     1183
5.8      1160
5.82     1169
5.84     1126
5.86     1142
5.88     1099
5.9      1100
5.92     1145
5.94     1136
5.96     1172
5.98     1172
6.0      1180
6.02     1154
6.04     1132
6.06     1120
6.08     1092
6.1      1105
6.12     1138
6.14     1144
6.16     1160
6.18     1107
6.2      1111
6.22     1109
6.24     1098
6.26     1120
6.28     1133
6.3      1133
6.32     1161
6.34     1179
6.36     1150
6.38     1149
6.4      1125
6.42     1141
6.44     1101
6.46     1143
6.48     1127
6.5      1133
6.52     1179
6.54     1194
6.56     1217
6.58     1256
6.6      1247
6.62     1264
6.64     1269
6.66     1263
6.68     1226
6.7      1220
6.72     1185
6.74     1145
6.76     1136
6.78     1120
6.8      1149
6.82     1156
6.84     1185
6.86     1154
6.88     1178
6.9      1195
6.92     1180
6.94     1212
6.96     1191
6.98     1173
7.0      1196
7.02     1156
7.04     1131
7.06     1146
7.08     1143
7.1      1169
7.12     1173
7.14     1186
7.16     1158
7.18     1174
7.2      1176
7.22     1134
7.24     1124
7.26     1164
7.28     1134
7.3      1172
7.32     1163
7.34     1145
7.36     1160
7.38     1162
7.4      1155
7.42     1169
7.44     1172
7.46     1160
7.48     1176
7.5      1146
7.52     1151
7.54     1127
7.56     1150
7.58     1123
7.6      1149
7.62     1198
7.64     1243
7.66     1253
7.68     1279
7.7      1229
7.72     1233
7.74     1211
7.76     1203
7.78     1181
7.8      1211
7.82     1207
7.84     1280
7.86     1280
7.88     1287
7.9      1249
7.92     1243
7.94     1208
7.96     1199
7.98     1195
8.0      1190
8.02     1164
8.04     1170
8.06     1175
8.08     1182
8.1      1161
8.12     1206
8.14     1188
8.16     1210
8.18     1221
8.2      1225
8.22     1212
8.24     1148
8.26     1202
8.28     1181
8.3      1180
8.32     1181
8.34     1180
8.36     1167
8.38     1176
8.4      1154
8.42     1154
8.44     1127
8.46     1200
8.48     1206
8.5      1210
8.52     1251
8.54     1284
8.56     1293
8.58     1276
8.6      1268
8.62     1255
8.64     1173
8.66     1191
8.68     1164
8.7      1145
8.72     1186
8.74     1186
8.76     1215
8.78     1199
8.8      1236
8.82     1208
8.84     1215
8.86     1270
8.88     1242
8.9      1249
8.92     1164
8.94     1189
8.96     1172
8.98     1137
9.0      1159
9.02     1155
9.04     1212
9.06     1242
9.08     1229
9.1      1247
9.12     1201
9.14     1262
9.16     1237
9.18     1224
9.2      1216
9.22     1208
9.24     1197
9.26     1154
9.28     1083
9.3      1069
9.32     1062
9.34     1002
9.36     1018
9.38     995
9.4      999
9.42     1017
9.44     1041
9.46     1019
9.48     1000
9.5      1022
9.52     1038
9.54     1035
9.56     1072
9.58     1004
9.6      1029
9.62     1039
9.64     1067
9.66     1043
9.68     1013
9.7      1040
9.72     1012
9.74     1026
9.76     986
9.78     990
9.8      1037
9.82     1072
9.84     1051
9.86     1060
9.88     1012
9.9      1013
9.92     937
9.94     939
9.96     878
9.98     963
10.0     944
10.02    958
10.04    943
10.06    981
10.08    944
10.1     904
10.12    881
10.14    907
10.16    884
10.18    917
10.2     882
10.22    915
10.24    880
10.26    901
10.28    898
10.3     832
10.32    846
10.34    892
10.36    877
10.38    888
10.4     885
10.42    913
10.44    894
10.46    921
10.48    919
10.5     908
10.52    892
10.54    908
10.56    845
10.58    898
10.6     920
10.62    930
10.64    944
10.66    959
10.68    942
10.7     948
10.72    899
10.74    857
10.76    804
10.78    838
10.8     851
10.82    881
10.84    917
10.86    946
10.88    956
10.9     946
10.92    962
10.94    898
10.96    907
10.98    889
11.0     925
11.02    920
11.04    848
11.06    795
11.08    800
11.1     783
11.12    835
11.14    791
11.16    856
11.18    885
11.2     882
11.22    798
11.24    765
11.26    731
11.28    724
11.3     752
11.32    832
11.34    805
11.36    827
11.38    871
11.4     835
11.42    844
11.44    901
11.46    883
11.48    863
11.5     890
11.52    891
11.54    822
11.56    824
11.58    835
11.6     785
11.62    853
11.64    901
11.66    918
11.68    928
11.7     940
11.72    935
11.74    955
11.76    976
11.78    924
11.8     904
11.82    903
11.84    868
11.86    838
11.88    864
11.9     921
11.92    924
11.94    949
11.96    944
11.98    917
12.0     913
12.02    905
12.04    894
12.06    864
12.08    887
12.1     932
12.12    912
12.14    920
12.16    901
12.18    909
12.2     921
12.22    958
12.24    961
12.26    946
12.28    908
12.3     940
12.32    935
12.34    929
12.36    916
12.38    893
12.4     938
12.42    941
12.44    988
12.46    1000
12.48    969
12.5     981
12.52    971
12.54    995
12.56    962
12.58    899
12.6     944
12.62    937
12.64    958
12.66    931
12.68    935
12.7     918
12.72    898
12.74    949
12.76    941
12.78    977
12.8     988
12.82    1004
12.84    1016
12.86    991
12.88    982
12.9     912
12.92    889
12.94    936
12.96    973
12.98    1009
13.0     999
13.02    997
13.04    1009
13.06    1012
13.08    1033
13.1     1032
13.12    1019
13.14    1026
13.16    1044
13.18    1031
13.2     1025
13.22    1022
13.24    1034
13.26    1106
13.28    1137
13.3     1178
13.32    1134
13.34    1119
13.36    1165
13.38    1102
13.4     1114
13.42    1129
13.44    1092
13.46    1088
13.48    1021
13.5     1066
13.52    1095
13.54    1155
13.56    1192
13.58    1128
13.6     1147
13.62    1183
13.64    1134
13.66    1139
13.68    1153
13.7     1157
13.72    1189
13.74    1206
13.76    1176
13.78    1139
13.8     1138
13.82    1195
13.84    1174
13.86    1212
13.88    1209
13.9     1189
13.92    1188
13.94    1182
13.96    1175
13.98    1197
14.0     1239
14.02    1262
14.04    1249
14.06    1281
14.08    1229
14.1     1256
14.12    1239
14.14    1218
14.16    1187
14.18    1210
14.2     1226
14.22    1230
14.24    1254
14.26    1277
14.28    1317
14.3     1344
14.32    1368
14.34    1340
14.36    1291
14.38    1269
14.4     1248
14.42    1255
14.44    1268
14.46    1288
14.48    1380
14.5     1371
14.52    1337
14.54    1318
14.56    1324
14.58    1311
14.6     1349
14.62    1413
14.64    1483
14.66    1482
14.68    1433
14.7     1412
14.72    1380
14.74    1382
14.76    1329
14.78    1298
14.8     1348
14.82    1369
14.84    1397
14.86    1414
14.88    1450
14.9     1504
14.92    1526
14.94    1547
14.96    1529
14.98    1498
15.0     1445
15.02    1386
15.04    1419
15.06    1470
15.08    1509
15.1     1485
15.12    1483
15.14    1512
15.16    1477
15.18    1374
15.2     1387
15.22    1429
15.24    1535
15.26    1543
15.28    1536
15.3     1522
15.32    1571
15.34    1540
15.36    1446
15.38    1345
15.4     1376
15.42    1431
15.44    1459
15.46    1405
15.48    1457
15.5     1505
15.52    1565
15.54    1523
15.56    1481
15.58    1413
15.6     1379
15.62    1462
15.64    1505
15.66    1502
15.68    1566
15.7     1657
15.72    1645
15.74    1622
15.76    1631
15.78    1578
15.8     1562
15.82    1666
15.84    1704
15.86    1671
15.88    1682
15.9     1821
15.92    1843
15.94    1951
15.96    2123
15.98    2156
16.0     2247
16.02    2359
16.04    2380
16.06    2433
16.08    2518
16.1     2687
16.12    2836
16.14    3077
16.16    3303
16.18    3468
16.2     3781
16.22    4154
16.24    4497
16.26    4997
16.28    5696
16.3     6629
16.32    7613
16.34    8814
16.36    10425
16.38    12416
16.4     14827
16.42    17756
16.44    21288
16.46    25477
16.48    30251
16.5     35043
16.52    38967
16.54    41598
16.56    42478
16.58    41035
16.6     37447
16.62    32300
16.64    26412
16.66    20671
16.68    15707
16.7     11744
16.72    8816
16.74    6892
16.76    5710
16.78    4840
16.8     4153
16.82    3609
16.84    3235
16.86    3056
16.88    2848
16.9     2619
16.92    2534
16.94    2502
16.96    2400
16.98    2236
17.0     2101
17.02    1993
17.04    1903
17.06    1931
17.08    1901
17.1     1807
17.12    1839
17.14    1855
17.16    1752
17.18    1680
17.2     1641
17.22    1648
17.24    1645
17.26    1740
17.28    1713
17.3     1624
17.32    1602
17.34    1560
17.36    1501
17.38    1492
17.4     1485
17.42    1545
17.44    1521
17.46    1520
17.48    1505
17.5     1481
17.52    1471
17.54    1427
17.56    1427
17.58    1440
17.6     1459
17.62    1461
17.64    1354
17.66    1317
17.68    1363
17.7     1331
17.72    1336
17.74    1293
17.76    1216
17.78    1226
17.8     1305
17.82    1364
17.84    1287
17.86    1244
17.88    1229
17.9     1181
17.92    1217
17.94    1154
17.96    1096
17.98    1141
18.0     1212
18.02    1294
18.04    1288
18.06    1235
18.08    1179
18.1     1177
18.12    1203
18.14    1113
18.16    1102
18.18    1081
18.2     1121
18.22    1188
18.24    1218
18.26    1159
18.28    1105
18.3     1077
18.32    1021
18.34    938
18.36    969
18.38    996
18.4     1058
18.42    1071
18.44    1116
18.46    1159
18.48    1166
18.5     1095
18.52    1001
18.54    1017
18.56    1077
18.58    1068
18.6     1023
18.62    973
18.64    1016
18.66    1081
18.68    1088
18.7     1028
18.72    1025
18.74    1137
18.76    1144
18.78    1126
18.8     1111
18.82    1063
18.84    1032
18.86    1072
18.88    1010
18.9     1004
18.92    1035
18.94    1052
18.96    970
18.98    953
19.0     984
19.02    960
19.04    973
19.06    1015
19.08    971
19.1     1052
19.12    1100
19.14    1075
19.16    989
19.18    934
19.2     917
19.22    917
19.24    940
19.26    914
19.28    868
19.3     893
19.32    868
19.34    851
19.36    822
19.38    784
19.4     778
19.42    800
19.44    843
19.46    873
19.48    916
19.5     964
19.52    896
19.54    867
19.56    833
19.58    821
19.6     865
19.62    855
19.64    832
19.66    799
19.68    781
19.7     820
19.72    775
19.74    735
19.76    722
19.78    776
19.8     885
19.82    864
19.84    816
19.86    700
19.88    625
19.9     698
19.92    703
19.94    689
19.96    706
19.98    764
20.0     819
20.02    792
20.04    794
20.06    706
20.08    672
20.1     699
20.12    739
20.14    777
20.16    761
20.18    699
20.2     694
20.22    710
20.24    687
20.26    730
20.28    741
20.3     746
20.32    762
20.34    781
20.36    785
20.38    766
20.4     752
20.42    778
20.44    840
20.46    938
20.48    886
20.5     854
20.52    806
20.54    818
20.56    826
20.58    761
20.6     703
20.62    722
20.64    788
20.66    807
20.68    761
20.7     791
20.72    802
20.74    861
20.76    838
20.78    796
20.8     808
20.82    822
20.84    836
20.86    829
20.88    793
20.9     761
20.92    739
20.94    750
20.96    708
20.98    725
21.0     718
21.02    740
21.04    749
21.06    739
21.08    696
21.1     673
21.12    649
21.14    728
21.16    778
21.18    798
21.2     726
21.22    692
21.24    727
21.26    697
21.28    672
21.3     699
21.32    719
21.34    817
21.36    805
21.38    726
21.4     618
21.42    603
21.44    633
21.46    590
21.48    590
21.5     652
21.52    710
21.54    753
21.56    714
21.58    618
21.6     568
21.62    591
21.64    569
21.66    523
21.68    551
21.7     635
21.72    707
21.74    728
21.76    665
21.78    648
21.8     644
21.82    643
21.84    618
21.86    578
21.88    607
21.9     606
21.92    610
21.94    598
21.96    587
21.98    605
22.0     592
22.02    598
22.04    607
22.06    610
22.08    638
22.1     626
22.12    601
22.14    609
22.16    582
22.18    574
22.2     536
22.22    537
22.24    541
22.26    565
22.28    599
22.3     609
22.32    584
22.34    574
22.36    584
22.38    670
22.4     721
22.42    735
22.44    731
22.46    709
22.48    655
22.5     615
22.52    565
22.54    503
22.56    592
22.58    641
22.6     656
22.62    599
22.64    625
22.66    643
22.68    634
22.7     647
22.72    612
22.74    542
22.76    557
22.78    480
22.8     490
22.82    491
22.84    531
22.86    595
22.88    688
22.9     779
22.92    734
22.94    671
22.96    586
22.98    553
23.0     506
23.02    492
23.04    466
23.06    554
23.08    602
23.1     611
23.12    541
23.14    523
23.16    503
23.18    569
23.2     556
23.22    615
23.24    609
23.26    636
23.28    596
23.3     610
23.32    603
23.34    606
23.36    595
23.38    667
23.4     624
23.42    615
23.44    528
23.46    516
23.48    444
23.5     485
23.52    440
23.54    454
23.56    389
23.58    406
23.6     439
23.62    538
23.64    605
23.66    624
23.68    549
23.7     546
23.72    549
23.74    602
23.76    525
23.78    530
23.8     530
23.82    552
23.84    613
23.86    613
23.88    632
23.9     618
23.92    611
23.94    537
23.96    446
23.98    366
24.0     290
24.02    242
24.04    269
24.06    346
24.08    440
24.1     466
24.12    483
24.14    506
24.16    539
24.18    523
24.2     506
24.22    458
24.24    433
24.26    427
24.28    445
24.3     465
24.32    510
24.34    529
24.36    500
24.38    443
24.4     391
24.42    415
24.44    417
24.46    473
24.48    501
24.5     491
24.52    517
24.54    529
24.56    527
24.58    518
24.6     492
24.62    456
24.64    456
24.66    468
24.68    455
24.7     453
24.72    582
24.74    629
24.76    668
24.78    626
24.8     572
24.82    525
24.84    525
24.86    450
24.88    467
24.9     504
24.92    595
24.94    577
24.96    543
24.98    467
25.0     455
25.02    491
25.04    499
25.06    442
25.08    427
25.1     426
25.12    409
25.14    393
25.16    417
25.18    450
25.2     464
25.22    532
25.24    560
25.26    523
25.28    501
25.3     508
25.32    507
25.34    506
25.36    478
25.38    428
25.4     364
25.42    401
25.44    443
25.46    466
25.48    484
25.5     489
25.52    444
25.54    426
25.56    355
25.58    406
25.6     475
25.62    549
25.64    524
25.66    495
25.68    509
25.7     519
25.72    549
25.74    591
25.76    574
25.78    600
25.8     548
25.82    448
25.84    315
25.86    275
25.88    292
25.9     340
25.92    349
25.94    379
25.96    388
25.98    451
26.0     459
26.02    498
26.04    459
26.06    443
26.08    373
26.1     344
26.12    302
26.14    376
26.16    457
26.18    532
26.2     560
26.22    576
26.24    537
26.26    529
26.28    472
26.3     545
26.32    593
26.34    656
26.36    639
26.38    545
26.4     495
26.42    396
26.44    367
26.46    369
26.48    387
26.5     488
26.52    509
26.54    545
26.56    509
26.58    474
26.6     459
26.62    430
26.64    440
26.66    460
26.68    417
26.7     437
26.72    419
26.74    431
26.76    424
26.78    380
26.8     409
26.82    384
26.84    398
26.86    442
26.88    429
26.9     460
26.92    434
26.94    436
26.96    336
26.98    258
27.0     282
27.02    282
27.04    385
27.06    409
27.08    371
27.1     368
27.12    328
27.14    329
27.16    261
27.18    352
27.2     442
27.22    512
27.24    552
27.26    446
27.28    368
27.3     369
27.32    372
27.34    406
27.36    444
27.38    517
27.4     560
27.42    594
27.44    604
27.46    538
27.48    499
27.5     494
27.52    481
27.54    409
27.56    353
27.58    357
27.6     433
27.62    540
27.64    577
27.66    574
27.68    541
27.7     496
27.72    479
27.74    386
27.76    358
27.78    385
27.8     408
27.82    428
27.84    415
27.86    417
27.88    463
27.9     480
27.92    454
27.94    359
27.96    295
27.98    260
28.0     285
28.02    374
28.04    471
28.06    498
28.08    556
28.1     573
28.12    484
28.14    457
28.16    400
28.18    399
28.2     471
28.22    501
28.24    479
28.26    435
28.28    381
28.3     376
28.32    323
28.34    348
28.36    310
28.38    348
28.4     349
28.42    339
28.44    344
28.46    357
28.48    357
28.5     346
28.52    378
28.54    415
28.56    402
28.58    383
28.6     354
28.62    341
28.64    342
28.66    350
28.68    378
28.7     410
28.72    507
28.74    552
28.76    548
28.78    475
28.8     433
28.82    360
28.84    355
28.86    312
28.88    276
28.9     359
28.92    402
28.94    500
28.96    557
28.98    489
29.0     428
29.02    338
29.04    309
29.06    276
29.08    297
29.1     384
29.12    399
29.14    453
29.16    429
29.18    315
29.2     350
29.22    338
29.24    406
29.26    479
29.28    490
29.3     451
29.32    383
29.34    306
29.36    264
29.38    251
29.4     345
29.42    359
29.44    417
29.46    499
29.48    453
29.5     444
29.52    423
29.54    460
29.56    497
29.58    487
29.6     430
29.62    389
29.64    434
29.66    442
29.68    358
29.7     310
29.72    269
29.74    282
29.76    351
29.78    387
29.8     444
29.82    469
29.84    490
29.86    379
29.88    305
29.9     277
29.92    241
29.94    268
29.96    364
29.98    394
30.0     453
30.02    407
30.04    327
30.06    292
30.08    323
30.1     279
30.12    276
30.14    273
30.16    326
30.18    354
30.2     380
30.22    454
30.24    472
30.26    522
30.28    490
30.3     327
30.32    303
30.34    287
30.36    318
30.38    336
30.4     347
30.42    419
30.44    412
30.46    393
30.48    395
30.5     369
30.52    409
30.54    482
30.56    428
30.58    435
30.6     409
30.62    357
30.64    318
30.66    309
30.68    378
30.7     388
30.72    390
30.74    356
30.76    285
30.78    329
30.8     293
30.82    354
30.84    460
30.86    520
30.88    598
30.9     566
30.92    507
30.94    394
30.96    349
30.98    350
31.0     275
31.02    382
31.04    427
31.06    406
31.08    448
31.1     391
31.12    324
31.14    263
31.16    216
31.18    197
31.2     232
31.22    345
31.24    406
31.26    450
31.28    496
31.3     452
31.32    393
31.34    326
31.36    267
31.38    243
31.4     260
31.42    263
31.44    281
31.46    287
31.48    356
31.5     391
31.52    425
31.54    465
31.56    446
31.58    434
31.6     413
31.62    337
31.64    355
31.66    432
31.68    527
31.7     534
31.72    521
31.74    457
31.76    340
31.78    287
31.8     246
31.82    182
31.84    267
31.86    402
31.88    453
31.9     470
31.92    464
31.94    467
31.96    434
31.98    426
32.0     441
32.02    442
32.04    515
32.06    600
32.08    628
32.1     628
32.12    589
32.14    589
32.16    549
32.18    582
32.2     624
32.22    678
32.24    723
32.26    791
32.28    785
32.3     718
32.32    605
32.34    603
32.36    578
32.38    650
32.4     714
32.42    712
32.44    662
32.46    642
32.48    576
32.5     509
32.52    445
32.54    528
32.56    550
32.58    672
32.6     670
32.62    562
32.64    500
32.66    400
32.68    323
32.7     278
32.72    316
32.74    399
32.76    518
32.78    646
32.8     665
32.82    702
32.84    697
32.86    655
32.88    641
32.9     595
32.92    622
32.94    614
32.96    630
32.98    636
33.0     651
33.02    606
33.04    581
33.06    620
33.08    641
33.1     656
33.12    691
33.14    741
33.16    755
33.18    808
33.2     915
33.22    940
33.24    1121
33.26    1247
33.28    1408
33.3     1656
33.32    1990
33.34    2372
33.36    2795
33.38    3328
33.4     3986
33.42    4720
33.44    5571
33.46    6338
33.48    7084
33.5     7770
33.52    8321
33.54    8570
33.56    8558
33.58    8232
33.6     7558
33.62    6663
33.64    5736
33.66    4727
33.68    3818
33.7     3110
33.72    2548
33.74    2148
33.76    1807
33.78    1562
33.8     1322
33.82    1087
33.84    1018
33.86    941
33.88    915
33.9     932
33.92    889
33.94    856
33.96    724
33.98    713
34.0     658
34.02    568
34.04    538
34.06    541
34.08    526
34.1     606
34.12    653
34.14    638
34.16    631
34.18    670
34.2     584
34.22    530
34.24    492
34.26    476
34.28    514
34.3     571
34.32    613
34.34    585
34.36    545
34.38    562
34.4     498
34.42    492
34.44    480
34.46    476
34.48    534
34.5     532
34.52    576
34.54    569
34.56    557
34.58    600
34.6     555
34.62    592
34.64    568
34.66    635
34.68    685
34.7     711
34.72    721
34.74    738
34.76    687
34.78    665
34.8     672
34.82    742
34.84    815
34.86    954
34.88    1073
34.9     1240
34.92    1412
34.94    1651
34.96    1954
34.98    2365
35.0     2981
35.02    3796
35.04    4893
35.06    6103
35.08    7325
35.1     8317
35.12    8980
35.14    9150
35.16    8852
35.18    8087
35.2     7093
35.22    5940
35.24    5000
35.26    4156
35.28    3411
35.3     2805
35.32    2342
35.34    1964
35.36    1704
35.38    1488
35.4     1242
35.42    998
35.44    932
35.46    825
35.48    717
35.5     678
35.52    645
35.54    674
35.56    753
35.58    746
35.6     710
35.62    714
35.64    743
35.66    739
35.68    722
35.7     721
35.72    647
35.74    639
35.76    644
35.78    566
35.8     552
35.82    566
35.84    544
35.86    561
35.88    580
35.9     623
35.92    656
35.94    732
35.96    728
35.98    776
36.0     827
36.02    818
36.04    883
36.06    929
36.08    918
36.1     967
36.12    1019
36.14    1018
36.16    1089
36.18    1295
36.2     1504
36.22    1694
36.24    2023
36.26    2388
36.28    2788
36.3     3356
36.32    4104
36.34    5075
36.36    6486
36.38    8273
36.4     10379
36.42    12662
36.44    14893
36.46    16830
36.48    18025
36.5     18411
36.52    17886
36.54    16594
36.56    14778
36.58    12651
36.6     10487
36.62    8512
36.64    6748
36.66    5316
36.68    4142
36.7     3247
36.72    2623
36.74    2212
36.76    1894
36.78    1759
36.8     1603
36.82    1429
36.84    1250
36.86    1101
36.88    956
36.9     884
36.92    897
36.94    842
36.96    800
36.98    893
37.0     882
37.02    859
37.04    828
37.06    863
37.08    776
37.1     759
37.12    787
37.14    768
37.16    780
37.18    861
37.2     855
37.22    819
37.24    771
37.26    753
37.28    625
37.3     655
37.32    732
37.34    815
37.36    931
37.38    1011
37.4     980
37.42    901
37.44    810
37.46    627
37.48    449
37.5     454
37.52    424
37.54    439
37.56    532
37.58    627
37.6     628
37.62    604
37.64    588
37.66    500
37.68    416
37.7     494
37.72    490
37.74    517
37.76    592
37.78    690
37.8     666
37.82    641
37.84    693
37.86    623
37.88    582
37.9     584
37.92    545
37.94    551
37.96    560
37.98    564
38.0     525
38.02    489
38.04    554
38.06    521
38.08    591
38.1     540
38.12    545
38.14    526
38.16    468
38.18    349
38.2     292
38.22    239
38.24    346
38.26    402
38.28    518
38.3     525
38.32    601
38.34    575
38.36    540
38.38    421
38.4     399
38.42    330
38.44    374
38.46    331
38.48    343
38.5     320
38.52    373
38.54    371
38.56    406
38.58    408
38.6     451
38.62    404
38.64    430
38.66    449
38.68    450
38.7     462
38.72    525
38.74    569
38.76    611
38.78    662
38.8     651
38.82    620
38.84    596
38.86    585
38.88    490
38.9     451
38.92    375
38.94    307
38.96    284
38.98    337
39.0     335
39.02    422
39.04    503
39.06    555
39.08    510
39.1     522
39.12    427
39.14    386
39.16    405
39.18    446
39.2     393
39.22    505
39.24    537
39.26    468
39.28    437
39.3     446
39.32    375
39.34    398
39.36    448
39.38    453
39.4     435
39.42    487
39.44    468
39.46    460
39.48    485
39.5     501
39.52    514
39.54    475
39.56    442
39.58    449
39.6     451
39.62    436
39.64    476
39.66    484
39.68    426
39.7     437
39.72    505
39.74    488
39.76    514
39.78    578
39.8     607
39.82    633
39.84    601
39.86    553
39.88    489
39.9     429
39.92    476
39.94    502
39.96    497
39.98    505
40.0     557
40.02    635
40.04    625
40.06    708
40.08    737
40.1     746
40.12    770
40.14    835
40.16    819
40.18    836
40.2     865
40.22    911
40.24    877
40.26    899
40.28    929
40.3     924
40.32    884
40.34    959
40.36    942
40.38    930
40.4     890
40.42    872
40.44    779
40.46    726
40.48    708
40.5     699
40.52    720
40.54    811
40.56    926
40.58    1003
40.6     1034
40.62    1069
40.64    988
40.66    938
40.68    898
40.7     915
40.72    905
40.74    949
40.76    1082
40.78    1077
40.8     1096
40.82    1127
40.84    1164
40.86    1261
40.88    1302
40.9     1340
40.92    1390
40.94    1390
40.96    1403
40.98    1362
41.0     1426
41.02    1486
41.04    1635
41.06    1765
41.08    1912
41.1     2096
41.12    2381
41.14    2572
41.16    2862
41.18    3200
41.2     3563
41.22    3955
41.24    4491
41.26    5128
41.28    6038
41.3     7171
41.32    8551
41.34    10202
41.36    12396
41.38    15098
41.4     18557
41.42    22916
41.44    28243
41.46    34628
41.48    41812
41.5     49122
41.52    55483
41.54    60071
41.56    62163
41.58    61438
41.6     58103
41.62    52329
41.64    45218
41.66    37912
41.68    31110
41.7     25077
41.72    20094
41.74    16123
41.76    12972
41.78    10638
41.8     8813
41.82    7272
41.84    6174
41.86    5383
41.88    4827
41.9     4291
41.92    3951
41.94    3598
41.96    3220
41.98    2898
42.0     2516
42.02    2248
42.04    1997
42.06    1869
42.08    1834
42.1     1827
42.12    1794
42.14    1746
42.16    1686
42.18    1624
42.2     1438
42.22    1343
42.24    1238
42.26    1224
42.28    1197
42.3     1191
42.32    1183
42.34    1170
42.36    1125
42.38    1069
42.4     962
42.42    965
42.44    963
42.46    998
42.48    1072
42.5     1128
42.52    1085
42.54    1054
42.56    945
42.58    845
42.6     809
42.62    820
42.64    826
42.66    854
42.68    944
42.7     986
42.72    886
42.74    864
42.76    769
42.78    690
42.8     623
42.82    590
42.84    619
42.86    636
42.88    717
42.9     780
42.92    803
42.94    788
42.96    770
42.98    736
43.0     736
43.02    775
43.04    820
43.06    859
43.08    864
43.1     832
43.12    812
43.14    675
43.16    651
43.18    619
43.2     655
43.22    722
43.24    744
43.26    803
43.28    771
43.3     719
43.32    636
43.34    545
43.36    544
43.38    507
43.4     539
43.42    625
43.44    740
43.46    786
43.48    781
43.5     765
43.52    741
43.54    739
43.56    689
43.58    637
43.6     626
43.62    603
43.64    617
43.66    563
43.68    521
43.7     526
43.72    514
43.74    527
43.76    505
43.78    538
43.8     569
43.82    529
43.84    548
43.86    552
43.88    576
43.9     549
43.92    561
43.94    625
43.96    673
43.98    667
44.0     661
44.02    607
44.04    526
44.06    465
44.08    421
44.1     351
44.12    362
44.14    423
44.16    535
44.18    656
44.2     783
44.22    794
44.24    700
44.26    705
44.28    617
44.3     521
44.32    395
44.34    389
44.36    464
44.38    528
44.4     521
44.42    449
44.44    501
44.46    566
44.48    588
44.5     576
44.52    617
44.54    656
44.56    658
44.58    607
44.6     568
44.62    520
44.64    581
44.66    567
44.68    573
44.7     570
44.72    590
44.74    553
44.76    601
44.78    622
44.8     653
44.82    650
44.84    722
44.86    777
44.88    876
44.9     985
44.92    1066
44.94    1235
44.96    1458
44.98    1568
45.0     1607
45.02    1672
45.04    1710
45.06    1609
45.08    1589
45.1     1469
45.12    1339
45.14    1302
45.16    1265
45.18    1163
45.2     1042
45.22    1018
45.24    964
45.26    813
45.28    769
45.3     665
45.32    609
45.34    614
45.36    550
45.38    524
45.4     530
45.42    560
45.44    622
45.46    591
45.48    673
45.5     648
45.52    649
45.54    598
45.56    520
45.58    463
45.6     366
45.62    317
45.64    334
45.66    361
45.68    446
45.7     478
45.72    522
45.74    588
45.76    668
45.78    617
45.8     570
45.82    548
45.84    534
45.86    539
45.88    477
45.9     463
45.92    408
45.94    408
45.96    368
45.98    351
46.0     361
46.02    328
46.04    352
46.06    416
46.08    446
46.1     481
46.12    455
46.14    502
46.16    548
46.18    570
46.2     568
46.22    566
46.24    564
46.26    526
46.28    469
46.3     427
46.32    372
46.34    367
46.36    379
46.38    400
46.4     447
46.42    479
46.44    469
46.46    492
46.48    518
46.5     484
46.52    453
46.54    389
46.56    427
46.58    454
46.6     446
46.62    443
46.64    489
46.66    584
46.68    573
46.7     452
46.72    421
46.74    359
46.76    341
46.78    290
46.8     304
46.82    383
46.84    476
46.86    591
46.88    570
46.9     570
46.92    566
46.94    523
46.96    450
46.98    398
47.0     349
47.02    330
47.04    312
47.06    356
47.08    328
47.1     400
47.12    441
47.14    508
47.16    512
47.18    513
47.2     470
47.22    454
47.24    449
47.26    417
47.28    393
47.3     471
47.32    535
47.34    542
47.36    534
47.38    538
47.4     522
47.42    537
47.44    482
47.46    380
47.48    397
47.5     400
47.52    395
47.54    398
47.56    406
47.58    447
47.6     463
47.62    528
47.64    508
47.66    435
47.68    465
47.7     439
47.72    458
47.74    468
47.76    411
47.78    463
47.8     526
47.82    535
47.84    534
47.86    517
47.88    551
47.9     561
47.92    505
47.94    480
47.96    456
47.98    505
48.0     479
48.02    402
48.04    425
48.06    471
48.08    512
48.1     520
48.12    499
48.14    513
48.16    532
48.18    527
48.2     457
48.22    433
48.24    425
48.26    452
48.28    459
48.3     448
48.32    483
48.34    471
48.36    504
48.38    542
48.4     549
48.42    549
48.44    502
48.46    467
48.48    437
48.5     390
48.52    394
48.54    346
48.56    380
48.58    420
48.6     409
48.62    425
48.64    411
48.66    424
48.68    477
48.7     466
48.72    467
48.74    475
48.76    512
48.78    497
48.8     491
48.82    459
48.84    415
48.86    404
48.88    402
48.9     366
48.92    361
48.94    400
48.96    459
48.98    441
49.0     490
49.02    485
49.04    495
49.06    525
49.08    478
49.1     427
49.12    441
49.14    394
49.16    377
49.18    299
49.2     374
49.22    412
49.24    467
49.26    526
49.28    539
49.3     609
49.32    693
49.34    630
49.36    554
49.38    459
49.4     436
49.42    328
49.44    262
49.46    249
49.48    311
49.5     335
49.52    425
49.54    403
49.56    402
49.58    456
49.6     486
49.62    470
49.64    490
49.66    530
49.68    542
49.7     469
49.72    386
49.74    359
49.76    403
49.78    421
49.8     406
49.82    439
49.84    547
49.86    572
49.88    539
49.9     481
49.92    417
49.94    459
49.96    437
49.98    371
50.0     339
50.02    434
50.04    528
50.06    504
50.08    478
50.1     443
50.12    439
50.14    418
50.16    334
50.18    305
50.2     312
50.22    363
50.24    389
50.26    403
50.28    438
50.3     459
50.32    473
50.34    499
50.36    437
50.38    486
50.4     486
50.42    441
50.44    441
50.46    435
50.48    394
50.5     393
50.52    355
50.54    279
50.56    262
50.58    285
50.6     319
50.62    348
50.64    361
50.66    416
50.68    420
50.7     501
50.72    462
50.74    351
50.76    377
50.78    365
50.8     354
50.82    310
50.84    272
50.86    358
50.88    412
50.9     483
50.92    471
50.94    495
50.96    515
50.98    514
51.0     484
51.02    467
51.04    443
51.06    479
51.08    475
51.1     474
51.12    502
51.14    551
51.16    493
51.18    524
51.2     539
51.22    504
51.24    420
51.26    372
51.28    382
51.3     382
51.32    414
51.34    398
51.36    401
51.38    514
51.4     535
51.42    490
51.44    451
51.46    482
51.48    518
51.5     468
51.52    371
51.54    333
51.56    353
51.58    401
51.6     364
51.62    397
51.64    479
51.66    580
51.68    602
51.7     568
51.72    539
51.74    582
51.76    560
51.78    541
51.8     464
51.82    429
51.84    449
51.86    419
51.88    317
51.9     258
51.92    292
51.94    349
51.96    469
51.98    521
52.0     511
52.02    525
52.04    614
52.06    585
52.08    538
52.1     510
52.12    554
52.14    608
52.16    669
52.18    615
52.2     576
52.22    595
52.24    596
52.26    581
52.28    614
52.3     580
52.32    626
52.34    602
52.36    569
52.38    550
52.4     517
52.42    463
52.44    417
52.46    417
52.48    465
52.5     390
52.52    425
52.54    477
52.56    505
52.58    546
52.6     606
52.62    570
52.64    619
52.66    633
52.68    622
52.7     532
52.72    503
52.74    462
52.76    378
52.78    324
52.8     396
52.82    445
52.84    577
52.86    652
52.88    763
52.9     851
52.92    895
52.94    868
52.96    750
52.98    645
53.0     655
53.02    693
53.04    727
53.06    683
53.08    742
53.1     863
53.12    982
53.14    1085
53.16    1065
53.18    1105
53.2     1241
53.22    1393
53.24    1542
53.26    1627
53.28    1885
53.3     2256
53.32    2676
53.34    3107
53.36    3573
53.38    4020
53.4     4570
53.42    4987
53.44    5355
53.46    5522
53.48    5589
53.5     5451
53.52    5141
53.54    4701
53.56    4234
53.58    3644
53.6     3204
53.62    2735
53.64    2353
53.66    2029
53.68    1772
53.7     1558
53.72    1361
53.74    1208
53.76    1124
53.78    1057
53.8     1006
53.82    949
53.84    948
53.86    968
53.88    971
53.9     892
53.92    791
53.94    725
53.96    729
53.98    650
54.0     522
54.02    449
54.04    479
54.06    543
54.08    608
54.1     576
54.12    644
54.14    723
54.16    777
54.18    775
54.2     700
54.22    569
54.24    534
54.26    514
54.28    419
54.3     346
54.32    413
54.34    476
54.36    495
54.38    574
54.4     559
54.42    542
54.44    568
54.46    533
54.48    468
54.5     477
54.52    509
54.54    545
54.56    562
54.58    612
54.6     579
54.62    574
54.64    509
54.66    478
54.68    464
54.7     466
54.72    472
54.74    533
54.76    530
54.78    522
54.8     487
54.82    477
54.84    410
54.86    389
54.88    322
54.9     329
54.92    367
54.94    377
54.96    397
54.98    407
55.0     461
55.02    600
55.04    680
55.06    661
55.08    650
55.1     685
55.12    611
55.14    488
55.16    407
55.18    275
55.2     252
55.22    315
55.24    321
55.26    344
55.28    397
55.3     417
55.32    359
55.34    369
55.36    369
55.38    373
55.4     385
55.42    448
55.44    505
55.46    608
55.48    612
55.5     599
55.52    614
55.54    645
55.56    628
55.58    562
55.6     551
55.62    564
55.64    564
55.66    529
55.68    514
55.7     514
55.72    469
55.74    455
55.76    423
55.78    331
55.8     382
55.82    335
55.84    333
55.86    368
55.88    450
55.9     467
55.92    470
55.94    559
55.96    518
55.98    500
56.0     454
56.02    381
56.04    370
56.06    386
56.08    323
56.1     310
56.12    376
56.14    445
56.16    479
56.18    469
56.2     454
56.22    465
56.24    497
56.26    497
56.28    441
56.3     526
56.32    541
56.34    585
56.36    604
56.38    535
56.4     547
56.42    484
56.44    497
56.46    456
56.48    396
56.5     468
56.52    516
56.54    531
56.56    566
56.58    615
56.6     594
56.62    611
56.64    616
56.66    533
56.68    445
56.7     458
56.72    479
56.74    421
56.76    450
56.78    441
56.8     396
56.82    451
56.84    451
56.86    436
56.88    465
56.9     455
56.92    514
56.94    551
56.96    588
56.98    600
57.0     609
57.02    643
57.04    626
57.06    610
57.08    609
57.1     544
57.12    574
57.14    590
57.16    556
57.18    520
57.2     521
57.22    530
57.24    511
57.26    537
57.28    536
57.3     539
57.32    598
57.34    648
57.36    640
57.38    686
57.4     677
57.42    702
57.44    747
57.46    803
57.48    759
57.5     693
57.52    626
57.54    612
57.56    560
57.58    564
57.6     497
57.62    560
57.64    666
57.66    794
57.68    881
57.7     958
57.72    1047
57.74    1156
57.76    1226
57.78    1301
57.8     1299
57.82    1264
57.84    1252
57.86    1270
57.88    1267
57.9     1302
57.92    1457
57.94    1651
57.96    1929
57.98    2267
58.0     2580
58.02    2949
58.04    3359
58.06    3810
58.08    4321
58.1     4913
58.12    5660
58.14    6394
58.16    7199
58.18    8066
58.2     8990
58.22    9872
58.24    10600
58.26    11190
58.28    11537
58.3     11574
58.32    11286
58.34    10688
58.36    9885
58.38    8906
58.4     7957
58.42    6960
58.44    6024
58.46    5150
58.48    4401
58.5     3771
58.52    3266
58.54    2889
58.56    2582
58.58    2268
58.6     2074
58.62    1962
58.64    1822
58.66    1630
58.68    1542
58.7     1446
58.72    1373
58.74    1343
58.76    1279
58.78    1153
58.8     1052
58.82    1033
58.84    930
58.86    884
58.88    920
58.9     851
58.92    858
58.94    918
58.96    918
58.98    796
59.0     729
59.02    700
59.04    662
59.06    721
59.08    750
59.1     686
59.12    671
59.14    636
59.16    548
59.18    447
59.2     414
59.22    377
59.24    402
59.26    491
59.28    587
59.3     627
59.32    623
59.34    604
59.36    558
59.38    560
59.4     550
59.42    529
59.44    465
59.46    442
59.48    438
59.5     431
59.52    411
59.54    375
59.56    383
59.58    432
59.6     578
59.62    633
59.64    646
59.66    628
59.68    650
59.7     642
59.72    635
59.74    629
59.76    570
59.78    562
59.8     591
59.82    588
59.84    593
59.86    559
59.88    591
59.9     517
59.92    520
59.94    519
59.96    417
59.98    364
60.0     368
60.02    412
60.04    406
60.06    452
60.08    528
60.1     493
60.12    550
60.14    558
60.16    513
60.18    484
60.2     508
60.22    484
60.24    419
60.26    376
60.28    382
60.3     395
60.32    438
60.34    435
60.36    484
60.38    478
60.4     485
60.42    525
60.44    554
60.46    576
60.48    610
60.5     659
60.52    605
60.54    583
60.56    592
60.58    544
60.6     487
60.62    459
60.64    440
60.66    474
60.68    503
60.7     544
60.72    536
60.74    547
60.76    607
60.78    623
60.8     578
60.82    498
60.84    428
60.86    413
60.88    425
60.9     418
60.92    340
60.94    343
60.96    384
60.98    454
61.0     513
61.02    582
61.04    622
61.06    641
61.08    675
61.1     670
61.12    607
61.14    629
61.16    556
61.18    557
61.2     514
61.22    546
61.24    575
61.26    545
61.28    527
61.3     528
61.32    534
61.34    529
61.36    507
61.38    570
61.4     560
61.42    578
61.44    612
61.46    624
61.48    643
61.5     676
61.52    693
61.54    692
61.56    689
61.58    730
61.6     694
61.62    636
61.64    612
61.66    666
61.68    716
61.7     800
61.72    859
61.74    911
61.76    1011
61.78    1135
61.8     1262
61.82    1405
61.84    1572
61.86    1750
61.88    1959
61.9     2259
61.92    2570
61.94    2987
61.96    3459
61.98    3987
62.0     4656
62.02    5506
62.04    6436
62.06    7467
62.08    8553
62.1     9554
62.12    10430
62.14    11048
62.16    11311
62.18    11350
62.2     11072
62.22    10633
62.24    9991
62.26    9387
62.28    8642
62.3     7936
62.32    7232
62.34    6510
62.36    5836
62.38    5230
62.4     4676
62.42    4158
62.44    3671
62.46    3357
62.48    2919
62.5     2620
62.52    2296
62.54    2068
62.56    1781
62.58    1516
62.6     1356
62.62    1191
62.64    1080
62.66    1067
62.68    994
62.7     933
62.72    883
62.74    878
62.76    816
62.78    779
62.8     767
62.82    758
62.84    729
62.86    748
62.88    706
62.9     658
62.92    601
62.94    607
62.96    647
62.98    642
63.0     663
63.02    655
63.04    623
63.06    606
63.08    567
63.1     566
63.12    508
63.14    501
63.16    531
63.18    510
63.2     505
63.22    491
63.24    524
63.26    568
63.28    591
63.3     550
63.32    528
63.34    509
63.36    523
63.38    521
63.4     469
63.42    413
63.44    350
63.46    353
63.48    362
63.5     332
63.52    373
63.54    360
63.56    395
63.58    482
63.6     528
63.62    496
63.64    498
63.66    490
63.68    514
63.7     512
63.72    547
63.74    535
63.76    502
63.78    540
63.8     579
63.82    553
63.84    583
63.86    541
63.88    528
63.9     459
63.92    467
63.94    480
63.96    354
63.98    336
64.0     314
64.02    273
64.04    303
64.06    281
64.08    276
64.1     245
64.12    351
64.14    462
64.16    482
64.18    582
64.2     675
64.22    732
64.24    731
64.26    694
64.28    666
64.3     625
64.32    592
64.34    557
64.36    505
64.38    480
64.4     419
64.42    472
64.44    481
64.46    564
64.48    603
64.5     721
64.52    788
64.54    926
64.56    1009
64.58    1137
64.6     1154
64.62    1318
64.64    1438
64.66    1581
64.68    1728
64.7     1867
64.72    2001
64.74    2244
64.76    2455
64.78    2724
64.8     2844
64.82    2964
64.84    3038
64.86    3052
64.88    3097
64.9     2987
64.92    2881
64.94    2797
64.96    2711
64.98    2629
65.0     2439
65.02    2229
65.04    2016
65.06    1758
65.08    1542
65.1     1311
65.12    1148
65.14    965
65.16    854
65.18    840
65.2     779
65.22    755
65.24    740
65.26    734
65.28    722
65.3     742
65.32    763
65.34    713
65.36    657
65.38    626
65.4     614
65.42    593
65.44    463
65.46    454
65.48    415
65.5     386
65.52    388
65.54    363
65.56    388
65.58    334
65.6     362
65.62    389
65.64    360
65.66    437
65.68    444
65.7     440
65.72    479
65.74    456
65.76    526
65.78    476
65.8     491
65.82    460
65.84    459
65.86    419
65.88    365
65.9     336
65.92    361
65.94    321
65.96    373
65.98    422
66.0     468
66.02    451
66.04    470
66.06    429
66.08    414
66.1     395
66.12    400
66.14    333
66.16    314
66.18    322
66.2     312
66.22    356
66.24    380
66.26    414
66.28    453
66.3     509
66.32    558
66.34    572
66.36    573
66.38    517
66.4     429
66.42    395
66.44    375
66.46    345
66.48    301
66.5     331
66.52    350
66.54    381
66.56    388
66.58    373
66.6     387
66.62    424
66.64    427
66.66    407
66.68    430
66.7     449
66.72    432
66.74    414
66.76    413
66.78    412
66.8     410
66.82    479
66.84    482
66.86    448
66.88    494
66.9     399
66.92    392
66.94    356
66.96    337
66.98    324
67.0     349
67.02    413
67.04    457
67.06    454
67.08    514
67.1     486
67.12    537
67.14    527
67.16    491
67.18    452
67.2     418
67.22    352
67.24    305
67.26    271
67.28    280
67.3     324
67.32    390
67.34    425
67.36    441
67.38    450
67.4     403
67.42    408
67.44    403
67.46    386
67.48    403
67.5     435
67.52    452
67.54    416
67.56    386
67.58    359
67.6     345
67.62    353
67.64    395
67.66    356
67.68    369
67.7     397
67.72    488
67.74    581
67.76    557
67.78    554
67.8     568
67.82    442
67.84    377
67.86    251
67.88    212
67.9     276
67.92    404
67.94    473
67.96    443
67.98    483
68.0     523
68.02    497
68.04    520
68.06    539
68.08    561
68.1     567
68.12    517
68.14    507
68.16    462
68.18    431
68.2     431
68.22    407
68.24    429
68.26    521
68.28    532
68.3     526
68.32    549
68.34    568
68.36    549
68.38    533
68.4     543
68.42    507
68.44    507
68.46    520
68.48    494
68.5     528
68.52    615
68.54    632
68.56    700
68.58    770
68.6     901
68.62    955
68.64    965
68.66    1013
68.68    979
68.7     1009
68.72    1063
68.74    1107
68.76    1204
68.78    1329
68.8     1558
68.82    1763
68.84    1938
68.86    2187
68.88    2378
68.9     2614
68.92    2795
68.94    2905
68.96    2972
68.98    2937
69.0     2853
69.02    2744
69.04    2562
69.06    2384
69.08    2221
69.1     2075
69.12    1956
69.14    1786
69.16    1668
69.18    1517
69.2     1432
69.22    1347
69.24    1237
69.26    1090
69.28    970
69.3     805
69.32    713
69.34    590
69.36    586
69.38    581
69.4     601
69.42    589
69.44    609
69.46    621
69.48    623
69.5     548
69.52    579
69.54    561
69.56    628
69.58    571
69.6     526
69.62    484
69.64    452
69.66    443
69.68    415
69.7     424
69.72    427
69.74    439
69.76    493
69.78    497
69.8     494
69.82    460
69.84    480
69.86    484
69.88    447
69.9     442
69.92    447
69.94    498
69.96    517
69.98    527
70.0     488
70.02    488
70.04    496
70.06    552
70.08    597
70.1     655
70.12    683
70.14    699
70.16    643
70.18    640
70.2     613
70.22    636
70.24    675
70.26    724
70.28    790
70.3     818
70.32    896
70.34    958
70.36    948
70.38    983
70.4     1075
70.42    1175
70.44    1257
70.46    1345
70.48    1422
70.5     1463
70.52    1514
70.54    1510
70.56    1457
70.58    1433
70.6     1404
70.62    1376
70.64    1334
70.66    1345
70.68    1236
70.7     1176
70.72    1103
70.74    1085
70.76    1045
70.78    971
70.8     928
70.82    906
70.84    803
70.86    787
70.88    709
70.9     655
70.92    610
70.94    577
70.96    515
70.98    533
71.0     576
71.02    583
71.04    557
71.06    571
71.08    553
71.1     575
71.12    572
71.14    626
71.16    637
71.18    628
71.2     561
71.22    520
71.24    479
71.26    449
71.28    449
71.3     489
71.32    507
71.34    559
71.36    528
71.38    497
71.4     494
71.42    526
71.44    559
71.46    546
71.48    505
71.5     471
71.52    432
71.54    422
71.56    424
71.58    461
71.6     487
71.62    537
71.64    547
71.66    485
71.68    443
71.7     428
71.72    404
71.74    402
71.76    393
71.78    341
71.8     285
71.82    284
71.84    286
71.86    339
71.88    431
71.9     457
71.92    446
71.94    514
71.96    542
71.98    486
72.0     482
72.02    526
72.04    571
72.06    652
72.08    685
72.1     699
72.12    746
72.14    802
72.16    834
72.18    884
72.2     941
72.22    999
72.24    1039
72.26    1089
72.28    1214
72.3     1320
72.32    1402
72.34    1489
72.36    1599
72.38    1796
72.4     1980
72.42    2227
72.44    2528
72.46    2832
72.48    3191
72.5     3426
72.52    3567
72.54    3656
72.56    3672
72.58    3668
72.6     3533
72.62    3462
72.64    3336
72.66    3146
72.68    2959
72.7     2678
72.72    2393
72.74    2179
72.76    1980
72.78    1812
72.8     1657
72.82    1550
72.84    1392
72.86    1277
72.88    1129
72.9     971
72.92    917
72.94    855
72.96    780
72.98    751
73.0     676
73.02    620
73.04    630
73.06    706
73.08    722
73.1     752
73.12    812
73.14    779
73.16    733
73.18    666
73.2     600
73.22    579
73.24    566
73.26    613
73.28    578
73.3     588
73.32    618
73.34    684
73.36    735
73.38    781
73.4     875
73.42    881
73.44    884
73.46    957
73.48    1005
73.5     1053
73.52    1080
73.54    1068
73.56    1050
73.58    977
73.6     912
73.62    765
73.64    683
73.66    664
73.68    644
73.7     648
73.72    648
73.74    624
73.76    656
73.78    643
73.8     627
73.82    637
73.84    678
73.86    675
73.88    694
73.9     765
73.92    727
73.94    705
73.96    708
73.98    681
74.0     714
74.02    783
74.04    838
74.06    863
74.08    956
74.1     1014
74.12    1055
74.14    1109
74.16    1193
74.18    1223
74.2     1274
74.22    1344
74.24    1338
74.26    1380
74.28    1477
74.3     1578
74.32    1699
74.34    1752
74.36    1813
74.38    1803
74.4     1814
74.42    1813
74.44    1660
74.46    1629
74.48    1608
74.5     1552
74.52    1488
74.54    1406
74.56    1363
74.58    1326
74.6     1359
74.62    1403
74.64    1379
74.66    1462
74.68    1477
74.7     1478
74.72    1492
74.74    1506
74.76    1509
74.78    1549
74.8     1640
74.82    1758
74.84    1751
74.86    1811
74.88    1777
74.9     1753
74.92    1696
74.94    1639
74.96    1533
74.98    1523
75.0     1417
75.02    1305
75.04    1102
75.06    1059
75.08    931
75.1     819
75.12    769
75.14    736
75.16    722
75.18    781
75.2     742
75.22    715
75.24    638
75.26    653
75.28    514
75.3     428
75.32    404
75.34    371
75.36    422
75.38    481
75.4     549
75.42    573
75.44    584
75.46    620
75.48    589
75.5     604
75.52    609
75.54    559
75.56    540
75.58    472
75.6     474
75.62    456
75.64    480
75.66    494
75.68    452
75.7     386
75.72    312
75.74    222
75.76    217
75.78    263
75.8     405
75.82    524
75.84    612
75.86    610
75.88    545
75.9     516
75.92    452
75.94    404
75.96    402
75.98    409
76.0     391
76.02    404
76.04    444
76.06    453
76.08    428
76.1     505
76.12    471
76.14    475
76.16    470
76.18    427
76.2     410
76.22    487
76.24    461
76.26    406
76.28    349
76.3     404
76.32    367
76.34    410
76.36    383
76.38    415
76.4     489
76.42    501
76.44    391
76.46    416
76.48    453
76.5     523
76.52    525
76.54    525
76.56    449
76.58    485
76.6     501
76.62    482
76.64    494
76.66    565
76.68    575
76.7     498
76.72    407
76.74    371
76.76    265
76.78    262
76.8     249
76.82    241
76.84    287
76.86    290
76.88    293
76.9     280
76.92    346
76.94    475
76.96    498
76.98    555
77.0     602
77.02    688
77.04    722
77.06    731
77.08    769
77.1     835
77.12    843
77.14    854
77.16    820
77.18    803
77.2     812
77.22    903
77.24    879
77.26    895
77.28    1011
77.3     1157
77.32    1231
77.34    1347
77.36    1479
77.38    1612
77.4     1763
77.42    1961
77.44    2148
77.46    2415
77.48    2793
77.5     3101
77.52    3366
77.54    3618
77.56    3741
77.58    3845
77.6     3915
77.62    3920
77.64    3876
77.66    3808
77.68    3644
77.7     3402
77.72    3164
77.74    2929
77.76    2646
77.78    2459
77.8     2323
77.82    2174
77.84    1992
77.86    1814
77.88    1652
77.9     1483
77.92    1371
77.94    1322
77.96    1218
77.98    1129
78.0     1069
78.02    989
78.04    922
78.06    849
78.08    774
78.1     641
78.12    615
78.14    615
78.16    535
78.18    488
78.2     477
78.22    504
78.24    570
78.26    575
78.28    517
78.3     441
78.32    485
78.34    510
78.36    448
78.38    408
78.4     390
78.42    437
78.44    476
78.46    433
78.48    383
78.5     378
78.52    432
78.54    493
78.56    445
78.58    424
78.6     404
78.62    439
78.64    465
78.66    448
78.68    443
78.7     514
78.72    534
78.74    540
78.76    472
78.78    372
78.8     317
78.82    366
78.84    433
78.86    466
78.88    502
78.9     542
78.92    505
78.94    423
78.96    348
78.98    253
79.0     214
79.02    268
79.04    294
79.06    332
79.08    315
79.1     328
79.12    330
79.14    293
79.16    316
79.18    320
79.2     320
79.22    407
79.24    470
79.26    489
79.28    372
79.3     390
79.32    396
79.34    402
79.36    458
79.38    445
79.4     450
79.42    504
79.44    515
79.46    434
79.48    333
79.5     360
79.52    408
79.54    353
79.56    340
79.58    309
79.6     238
79.62    282
79.64    302
79.66    244
79.68    219
79.7     240
79.72    294
79.74    287
79.76    327
79.78    429
79.8     447
79.82    481
79.84    483
79.86    416
79.88    375
79.9     395
79.92    466
79.94    501
79.96    515
79.98    598
80.0     555
80.02    397
80.04    351
80.06    315
80.08    346
80.1     404
80.12    459
80.14    492
80.16    544
80.18    567
80.2     502
80.22    398
80.24    351
80.26    377
80.28    419
80.3     454
80.32    445
80.34    468
80.36    462
80.38    447
80.4     435
80.42    466
80.44    462
80.46    532
80.48    602
80.5     601
80.52    543
80.54    473
80.56    428
80.58    287
80.6     218
80.62    193
80.64    140
80.66    155
80.68    193
80.7     198
80.72    214
80.74    237
80.76    288
80.78    255
80.8     284
80.82    351
80.84    393
80.86    407
80.88    443
80.9     441
80.92    395
80.94    334
80.96    309
80.98    251
81.0     221
81.02    184
81.04    194
81.06    171
81.08    226
81.1     248
81.12    263
81.14    281
81.16    310
81.18    277
81.2     317
81.22    337
81.24    383
81.26    435
81.28    465
81.3     455
81.32    395
81.34    339
81.36    281
81.38    262
81.4     320
81.42    432
81.44    450
81.46    457
81.48    414
81.5     361
81.52    317
81.54    264
81.56    248
81.58    317
81.6     414
81.62    483
81.64    470
81.66    372
81.68    367
81.7     410
81.72    411
81.74    396
81.76    362
81.78    458
81.8     449
81.82    390
81.84    349
81.86    270
81.88    241
81.9     289
81.92    303
81.94    295
81.96    271
81.98    383
82.0     313
82.02    264
82.04    336
82.06    439
82.08    463
82.1     515
82.12    558
82.14    520
82.16    459
82.18    354
82.2     190
82.22    89
82.24    165
82.26    274
82.28    314
82.3     323
82.32    351
82.34    393
82.36    332
82.38    248
82.4     234
82.42    260
82.44    359
82.46    408
82.48    432
82.5     336
82.52    304
82.54    304
82.56    241
82.58    228
82.6     210
82.62    254
82.64    293
82.66    308
82.68    339
82.7     295
82.72    362
82.74    398
82.76    471
82.78    517
82.8     460
82.82    454
82.84    457
82.86    481
82.88    450
82.9     407
82.92    374
82.94    363
82.96    356
82.98    340
83.0     305
83.02    295
83.04    313
83.06    384
83.08    412
83.1     440
83.12    431
83.14    429
83.16    422
83.18    409
83.2     319
83.22    241
83.24    245
83.26    271
83.28    282
83.3     311
83.32    358
83.34    383
83.36    389
83.38    393
83.4     356
83.42    359
83.44    420
83.46    439
83.48    408
83.5     412
83.52    439
83.54    421
83.56    393
83.58    399
83.6     382
83.62    319
83.64    290
83.66    318
83.68    307
83.7     262
83.72    223
83.74    223
83.76    251
83.78    217
83.8     193
83.82    195
83.84    257
83.86    329
83.88    461
83.9     457
83.92    447
83.94    511
83.96    525
83.98    491
84.0     436
84.02    397
84.04    337
84.06    347
84.08    399
84.1     397
84.12    385
84.14    337
84.16    288
84.18    279
84.2     191
84.22    173
84.24    187
84.26    345
84.28    396
84.3     441
84.32    440
84.34    411
84.36    464
84.38    447
84.4     429
84.42    460
84.44    480
84.46    528
84.48    447
84.5     364
84.52    272
84.54    291
84.56    356
84.58    326
84.6     384
84.62    435
84.64    511
84.66    561
84.68    505
84.7     426
84.72    324
84.74    323
84.76    376
84.78    425
84.8     481
84.82    545
84.84    609
84.86    610
84.88    552
84.9     476
84.92    423
84.94    415
84.96    457
84.98    498
85.0     472
85.02    384
85.04    288
85.06    249
85.08    221
85.1     224
85.12    265
85.14    289
85.16    346
85.18    382
85.2     362
85.22    283
85.24    252
85.26    299
85.28    367
85.3     422
85.32    445
85.34    413
85.36    423
85.38    398
85.4     363
85.42    305
85.44    210
85.46    242
85.48    307
85.5     332
85.52    334
85.54    330
85.56    365
85.58    375
85.6     388
85.62    361
85.64    320
85.66    330
85.68    374
85.7     423
85.72    436
85.74    418
85.76    399
85.78    432
85.8     445
85.82    424
85.84    422
85.86    426
85.88    479
85.9     492
85.92    442
85.94    405
85.96    322
85.98    291
86.0     263
86.02    216
86.04    203
86.06    243
86.08    314
86.1     377
86.12    371
86.14    453
86.16    432
86.18    413
86.2     475
86.22    524
86.24    553
86.26    651
86.28    760
86.3     831
86.32    833
86.34    864
86.36    803
86.38    796
86.4     807
86.42    820
86.44    879
86.46    963
86.48    992
86.5     965
86.52    902
86.54    824
86.56    746
86.58    709
86.6     676
86.62    688
86.64    739
86.66    721
86.68    648
86.7     546
86.72    478
86.74    439
86.76    427
86.78    476
86.8     554
86.82    547
86.84    545
86.86    469
86.88    373
86.9     348
86.92    377
86.94    435
86.96    487
86.98    609
87.0     670
87.02    653
87.04    569
87.06    416
87.08    355
87.1     333
87.12    331
87.14    355
87.16    332
87.18    331
87.2     293
87.22    234
87.24    157
87.26    113
87.28    116
87.3     104
87.32    139
87.34    249
87.36    240
87.38    271
87.4     296
87.42    344
87.44    398
87.46    405
87.48    419
87.5     450
87.52    437
87.54    462
87.56    442
87.58    470
87.6     466
87.62    439
87.64    424
87.66    431
87.68    454
87.7     439
87.72    354
87.74    329
87.76    332
87.78    308
87.8     267
87.82    239
87.84    273
87.86    232
87.88    217
87.9     231
87.92    251
87.94    315
87.96    333
87.98    309
88.0     309
88.02    357
88.04    360
88.06    268
88.08    268
88.1     304
88.12    334
88.14    381
88.16    373
88.18    333
88.2     358
88.22    380
88.24    329
88.26    256
88.28    252
88.3     182
88.32    153
88.34    164
88.36    179
88.38    152
88.4     192
88.42    233
88.44    261
88.46    269
88.48    320
88.5     326
88.52    372
88.54    404
88.56    423
88.58    442
88.6     522
88.62    523
88.64    520
88.66    475
88.68    431
88.7     402
88.72    318
88.74    267
88.76    237
88.78    263
88.8     323
88.82    360
88.84    367
88.86    371
88.88    323
88.9     302
88.92    224
88.94    180
88.96    140
88.98    103
89.0     161
89.02    253
89.04    252
89.06    311
89.08    310
89.1     313
89.12    331
89.14    341
89.16    365
89.18    401
89.2     457
89.22    522
89.24    508
89.26    509
89.28    506
89.3     455
89.32    404
89.34    355
89.36    349
89.38    392
89.4     355
89.42    377
89.44    369
89.46    359
89.48    403
89.5     350
89.52    312
89.54    347
89.56    355
89.58    357
89.6     345
89.62    329
89.64    294
89.66    277
89.68    323
89.7     335
89.72    335
89.74    410
89.76    362
89.78    380
89.8     430
89.82    379
89.84    399
89.86    415
89.88    434
89.9     415
89.92    394
89.94    385
89.96    404
89.98    394
90.0     393
