?
5.0      852
5.02     852
5.04     1104
5.06     1042
5.08     1060
5.1      1053
5.12     1072
5.14     1102
5.16     1102
5.18     1127
5.2      1107
5.22     1141
5.24     1134
5.26     1114
5.28     1092
5.3      1107
5.32     1082
5.34     1121
5.36     1087
5.38     1069
5.4      1038
5.42     1039
5.44     1007
5.46     1013
5.48     990
5.5      1044
5.52     1022
5.54     1081
5.56     1071
5.58     1115
5.6      1128
5.62     1158
5.64     1119
5.66     1142
5.68     1133
5.7      1168
5.72     1151
5.74     1148
5.76     1150
5.78     1162
5.8      1135
5.82     1114
5.84     1072
5.86     1095
5.88     1111
5.9      1112
5.92     1126
5.94     1126
5.96     1135
5.98     1107
6.0      1068
6.02     1102
6.04     1093
6.06     1110
6.08     1103
6.1      1066
6.12     1081
6.14     1079
6.16     1114
6.18     1104
6.2      1094
6.22     1144
6.24     1141
6.26     1155
6.28     1166
6.3      1145
6.32     1158
6.34     1135
6.36     1165
6.38     1105
6.4      1063
6.42     1096
6.44     1085
6.46     1055
6.48     1082
6.5      1107
6.52     1086
6.54     1075
6.56     1086
6.58     1070
6.6      1038
6.62     1093
6.64     1060
6.66     1068
6.68     1042
6.7      1078
6.72     1055
6.74     1064
6.76     1070
6.78     1089
6.8      1114
6.82     1145
6.84     1143
6.86     1138
6.88     1098
6.9      1107
6.92     1076
6.94     1043
6.96     1028
6.98     1029
7.0      1060
7.02     1028
7.04     1024
7.06     1005
7.08     1061
7.1      1041
7.12     1094
7.14     1089
7.16     1126
7.18     1142
7.2      1139
7.22     1117
7.24     1103
7.26     1106
7.28     1125
7.3      1090
7.32     1127
7.34     1099
7.36     1102
7.38     1120
7.4      1094
7.42     1075
7.44     1122
7.46     1091
7.48     1103
7.5      1094
7.52     1078
7.54     1063
7.56     1074
7.58     1088
7.6      1087
7.62     1042
7.64     1052
7.66     959
7.68     963
7.7      927
7.72     890
7.74     953
7.76     971
7.78     1027
7.8      1060
7.82     1031
7.84     1035
7.86     1022
7.88     1047
7.9      1025
7.92     995
7.94     1038
7.96     1006
7.98     1070
8.0      1033
8.02     1000
8.04     1041
8.06     1023
8.08     1059
8.1      1015
8.12     993
8.14     1028
8.16     1041
8.18     1094
8.2      1104
8.22     1109
8.24     1178
8.26     1119
8.28     1165
8.3      1111
8.32     1099
8.34     1084
8.36     1095
8.38     1106
8.4      1093
8.42     1096
8.44     1104
8.46     1076
8.48     1101
8.5      1064
8.52     1066
8.54     1045
8.56     1044
8.58     1053
8.6      1007
8.62     996
8.64     981
8.66     982
8.68     992
8.7      944
8.72     991
8.74     942
8.76     982
8.78     982
8.8      982
8.82     1019
8.84     1022
8.86     1076
8.88     1067
8.9      1029
8.92     1063
8.94     1032
8.96     983
8.98     981
9.0      1026
9.02     1009
9.04     991
9.06     1042
9.08     1011
9.1      973
9.12     951
9.14     938
9.16     837
9.18     910
9.2      847
9.22     854
9.24     904
9.26     964
9.28     994
9.3      975
9.32     953
9.34     993
9.36     966
9.38     979
9.4      918
9.42     935
9.44     928
9.46     957
9.48     964
9.5      973
9.52     933
9.54     951
9.56     950
9.58     926
9.6      912
9.62     895
9.64     886
9.66     975
9.68     929
9.7      1003
9.72     956
9.74     966
9.76     932
9.78     919
9.8      919
9.82     900
9.84     881
9.86     927
9.88     868
9.9      926
9.92     898
9.94     894
9.96     876
9.98     874
10.0     883
10.02    884
10.04    900
10.06    953
10.08    951
10.1     981
10.12    979
10.14    971
10.16    913
10.18    922
10.2     881
10.22    869
10.24    851
10.26    897
10.28    878
10.3     887
10.32    907
10.34    907
10.36    899
10.38    871
10.4     807
10.42    836
10.44    812
10.46    832
10.48    833
10.5     895
10.52    956
10.54    982
10.56    1007
10.58    941
10.6     953
10.62    971
10.64    942
10.66    908
10.68    930
10.7     964
10.72    886
10.74    887
10.76    904
10.78    840
10.8     814
10.82    837
10.84    880
10.86    918
10.88    1031
10.9     1036
10.92    983
10.94    1059
10.96    1037
10.98    956
11.0     956
11.02    977
11.04    970
11.06    973
11.08    1049
11.1     950
11.12    939
11.14    943
11.16    881
11.18    921
11.2     981
11.22    1016
11.24    1024
11.26    1013
11.28    1051
11.3     970
11.32    1005
11.34    950
11.36    970
11.38    1002
11.4     993
11.42    962
11.44    976
11.46    945
11.48    945
11.5     936
11.52    986
11.54    982
11.56    1051
11.58    1040
11.6     1017
11.62    1011
11.64    1063
11.66    1044
11.68    1008
11.7     1035
11.72    1058
11.74    1081
11.76    1067
11.78    1095
11.8     1128
11.82    1125
11.84    1141
11.86    1100
11.88    1060
11.9     1058
11.92    1035
11.94    1062
11.96    1033
11.98    1102
12.0     1091
12.02    1074
12.04    1077
12.06    1023
12.08    1007
12.1     982
12.12    968
12.14    1009
12.16    1043
12.18    1033
12.2     1031
12.22    1037
12.24    1066
12.26    1079
12.28    1114
12.3     1097
12.32    1105
12.34    1119
12.36    1073
12.38    1010
12.4     986
12.42    942
12.44    987
12.46    976
12.48    948
12.5     939
12.52    974
12.54    1003
12.56    1001
12.58    1037
12.6     1066
12.62    1079
12.64    1088
12.66    1052
12.68    1034
12.7     1022
12.72    977
12.74    979
12.76    972
12.78    1061
12.8     1138
12.82    1099
12.84    1092
12.86    1115
12.88    1117
12.9     1084
12.92    1022
12.94    1003
12.96    1021
12.98    1132
13.0     1148
13.02    1081
13.04    1064
13.06    1059
13.08    1049
13.1     1025
13.12    993
13.14    964
13.16    932
13.18    943
13.2     995
13.22    1008
13.24    975
13.26    1032
13.28    1089
13.3     1068
13.32    1089
13.34    1067
13.36    1085
13.38    1134
13.4     1197
13.42    1163
13.44    1114
13.46    1176
13.48    1177
13.5     1122
13.52    1100
13.54    1074
13.56    1065
13.58    1025
13.6     1054
13.62    977
13.64    948
13.66    1031
13.68    1045
13.7     1089
13.72    1093
13.74    1121
13.76    1090
13.78    1039
13.8     1119
13.82    1072
13.84    1097
13.86    1112
13.88    1104
13.9     1182
13.92    1189
13.94    1173
13.96    1164
13.98    1154
14.0     1186
14.02    1221
14.04    1187
14.06    1095
14.08    1096
14.1     1123
14.12    1083
14.14    1040
14.16    1046
14.18    1112
14.2     1115
14.22    1152
14.24    1104
14.26    1158
14.28    1193
14.3     1123
14.32    1104
14.34    1087
14.36    1059
14.38    1063
14.4     1020
14.42    1004
14.44    1015
14.46    1102
14.48    1071
14.5     1031
14.52    1127
14.54    1163
14.56    1181
14.58    1169
14.6     1130
14.62    1136
14.64    1126
14.66    1078
14.68    1056
14.7     1063
14.72    1107
14.74    1120
14.76    1153
14.78    1191
14.8     1206
14.82    1229
14.84    1228
14.86    1214
14.88    1256
14.9     1264
14.92    1257
14.94    1286
14.96    1337
14.98    1352
15.0     1324
15.02    1249
15.04    1221
15.06    1206
15.08    1163
15.1     1107
15.12    1100
15.14    1144
15.16    1174
15.18    1100
15.2     1037
15.22    1037
15.24    1072
15.26    1025
15.28    1006
15.3     1012
15.32    1043
15.34    1080
15.36    1145
15.38    1125
15.4     1086
15.42    1143
15.44    1182
15.46    1178
15.48    1191
15.5     1163
15.52    1134
15.54    1156
15.56    1187
15.58    1149
15.6     1073
15.62    1098
15.64    1170
15.66    1245
15.68    1236
15.7     1186
15.72    1183
15.74    1248
15.76    1327
15.78    1340
15.8     1284
15.82    1305
15.84    1397
15.86    1428
15.88    1415
15.9     1367
15.92    1418
15.94    1512
15.96    1626
15.98    1641
16.0     1641
16.02    1744
16.04    1839
16.06    1931
16.08    2049
16.1     2142
16.12    2281
16.14    2454
16.16    2716
16.18    2965
16.2     3240
16.22    3646
16.24    4073
16.26    4593
16.28    5239
16.3     5950
16.32    6862
16.34    8052
16.36    9510
16.38    11271
16.4     13447
16.42    16231
16.44    19663
16.46    23859
16.48    28781
16.5     34016
16.52    38969
16.54    42749
16.56    44595
16.58    43881
16.6     40546
16.62    35135
16.64    28674
16.66    22091
16.68    16251
16.7     11634
16.72    8385
16.74    6339
16.76    5121
16.78    4242
16.8     3587
16.82    3068
16.84    2762
16.86    2513
16.88    2334
16.9     2101
16.92    1927
16.94    1788
16.96    1684
16.98    1616
17.0     1592
17.02    1544
17.04    1519
17.06    1469
17.08    1477
17.1     1371
17.12    1253
17.14    1160
17.16    1149
17.18    1128
17.2     1082
17.22    1061
17.24    1090
17.26    1174
17.28    1258
17.3     1194
17.32    1125
17.34    1058
17.36    1116
17.38    1167
17.4     1138
17.42    1174
17.44    1202
17.46    1212
17.48    1145
17.5     1029
17.52    925
17.54    856
17.56    908
17.58    979
17.6     985
17.62    1043
17.64    978
17.66    917
17.68    914
17.7     889
17.72    882
17.74    861
17.76    852
17.78    884
17.8     834
17.82    801
17.84    753
17.86    780
17.88    798
17.9     833
17.92    907
17.94    864
17.96    829
17.98    839
18.0     837
18.02    749
18.04    717
18.06    757
18.08    767
18.1     846
18.12    867
18.14    809
18.16    756
18.18    797
18.2     793
18.22    715
18.24    731
18.26    812
18.28    779
18.3     747
18.32    706
18.34    664
18.36    622
18.38    652
18.4     614
18.42    631
18.44    654
18.46    660
18.48    642
18.5     631
18.52    618
18.54    603
18.56    619
18.58    676
18.6     691
18.62    688
18.64    690
18.66    716
18.68    767
18.7     737
18.72    711
18.74    725
18.76    767
18.78    785
18.8     799
18.82    780
18.84    800
18.86    783
18.88    745
18.9     769
18.92    758
18.94    721
18.96    686
18.98    588
19.0     577
19.02    543
19.04    544
19.06    526
19.08    576
19.1     655
19.12    659
19.14    658
19.16    665
19.18    643
19.2     688
19.22    683
19.24    623
19.26    582
19.28    616
19.3     677
19.32    720
19.34    692
19.36    656
19.38    707
19.4     771
19.42    728
19.44    597
19.46    577
19.48    597
19.5     683
19.52    661
19.54    625
19.56    647
19.58    698
19.6     715
19.62    695
19.64    676
19.66    672
19.68    621
19.7     607
19.72    567
19.74    560
19.76    505
19.78    458
19.8     467
19.82    494
19.84    512
19.86    535
19.88    563
19.9     632
19.92    649
19.94    676
19.96    656
19.98    699
20.0     681
20.02    613
20.04    485
20.06    386
20.08    359
20.1     395
20.12    420
20.14    455
20.16    485
20.18    540
20.2     615
20.22    625
20.24    620
20.26    550
20.28    530
20.3     571
20.32    604
20.34    566
20.36    592
20.38    564
20.4     611
20.42    606
20.44    636
20.46    553
20.48    549
20.5     559
20.52    603
20.54    679
20.56    707
20.58    669
20.6     694
20.62    711
20.64    732
20.66    664
20.68    616
20.7     552
20.72    591
20.74    626
20.76    644
20.78    683
20.8     736
20.82    757
20.84    715
20.86    680
20.88    591
20.9     528
20.92    520
20.94    587
20.96    641
20.98    663
21.0     672
21.02    681
21.04    678
21.06    717
21.08    616
21.1     565
21.12    554
21.14    598
21.16    547
21.18    544
21.2     493
21.22    528
21.24    546
21.26    568
21.28    554
21.3     588
21.32    598
21.34    599
21.36    559
21.38    567
21.4     578
21.42    616
21.44    621
21.46    661
21.48    703
21.5     704
21.52    666
21.54    665
21.56    655
21.58    664
21.6     648
21.62    568
21.64    617
21.66    602
21.68    605
21.7     483
21.72    462
21.74    466
21.76    501
21.78    507
21.8     500
21.82    539
21.84    611
21.86    589
21.88    622
21.9     545
21.92    566
21.94    508
21.96    500
21.98    504
22.0     549
22.02    583
22.04    547
22.06    560
22.08    610
22.1     620
22.12    596
22.14    538
22.16    489
22.18    500
22.2     518
22.22    534
22.24    538
22.26    536
22.28    509
22.3     499
22.32    509
22.34    530
22.36    505
22.38    507
22.4     509
22.42    598
22.44    609
22.46    603
22.48    491
22.5     491
22.52    545
22.54    593
22.56    587
22.58    576
22.6     531
22.62    587
22.64    586
22.66    539
22.68    480
22.7     523
22.72    573
22.74    590
22.76    588
22.78    562
22.8     510
22.82    507
22.84    529
22.86    516
22.88    564
22.9     551
22.92    586
22.94    591
22.96    622
22.98    623
23.0     605
23.02    579
23.04    550
23.06    516
23.08    470
23.1     427
23.12    482
23.14    535
23.16    579
23.18    563
23.2     562
23.22    569
23.24    587
23.26    553
23.28    519
23.3     485
23.32    463
23.34    462
23.36    454
23.38    427
23.4     448
23.42    503
23.44    608
23.46    633
23.48    629
23.5     549
23.52    511
23.54    530
23.56    564
23.58    547
23.6     491
23.62    555
23.64    625
23.66    681
23.68    623
23.7     568
23.72    589
23.74    626
23.76    630
23.78    576
23.8     522
23.82    540
23.84    557
23.86    525
23.88    486
23.9     476
23.92    477
23.94    490
23.96    487
23.98    501
24.0     482
24.02    474
24.04    466
24.06    449
24.08    448
24.1     447
24.12    498
24.14    541
24.16    622
24.18    649
24.2     615
24.22    566
24.24    509
24.26    442
24.28    421
24.3     423
24.32    446
24.34    441
24.36    529
24.38    504
24.4     522
24.42    473
24.44    459
24.46    428
24.48    481
24.5     503
24.52    544
24.54    570
24.56    626
24.58    557
24.6     514
24.62    480
24.64    517
24.66    543
24.68    545
24.7     585
24.72    592
24.74    605
24.76    584
24.78    491
24.8     434
24.82    482
24.84    579
24.86    616
24.88    575
24.9     507
24.92    440
24.94    438
24.96    521
24.98    491
25.0     542
25.02    522
25.04    570
25.06    599
25.08    617
25.1     504
25.12    468
25.14    454
25.16    560
25.18    562
25.2     596
25.22    528
25.24    469
25.26    510
25.28    485
25.3     448
25.32    434
25.34    432
25.36    478
25.38    564
25.4     571
25.42    637
25.44    537
25.46    565
25.48    471
25.5     531
25.52    491
25.54    452
25.56    430
25.58    413
25.6     468
25.62    578
25.64    548
25.66    549
25.68    499
25.7     533
25.72    555
25.74    565
25.76    536
25.78    461
25.8     429
25.82    405
25.84    413
25.86    413
25.88    432
25.9     502
25.92    555
25.94    630
25.96    589
25.98    527
26.0     427
26.02    394
26.04    425
26.06    430
26.08    435
26.1     449
26.12    434
26.14    450
26.16    367
26.18    348
26.2     330
26.22    341
26.24    367
26.26    418
26.28    468
26.3     522
26.32    529
26.34    493
26.36    452
26.38    452
26.4     470
26.42    429
26.44    367
26.46    374
26.48    417
26.5     493
26.52    516
26.54    434
26.56    398
26.58    372
26.6     396
26.62    338
26.64    316
26.66    353
26.68    488
26.7     566
26.72    558
26.74    453
26.76    478
26.78    483
26.8     532
26.82    422
26.84    391
26.86    356
26.88    403
26.9     398
26.92    422
26.94    468
26.96    505
26.98    537
27.0     591
27.02    502
27.04    492
27.06    484
27.08    490
27.1     549
27.12    539
27.14    512
27.16    418
27.18    436
27.2     441
27.22    436
27.24    387
27.26    400
27.28    421
27.3     492
27.32    500
27.34    481
27.36    470
27.38    506
27.4     528
27.42    573
27.44    569
27.46    547
27.48    486
27.5     352
27.52    290
27.54    243
27.56    321
27.58    356
27.6     485
27.62    568
27.64    643
27.66    622
27.68    513
27.7     403
27.72    356
27.74    309
27.76    307
27.78    303
27.8     343
27.82    406
27.84    477
27.86    514
27.88    437
27.9     448
27.92    449
27.94    428
27.96    415
27.98    425
28.0     331
28.02    366
28.04    381
28.06    365
28.08    312
28.1     323
28.12    386
28.14    359
28.16    370
28.18    376
28.2     312
28.22    344
28.24    357
28.26    341
28.28    392
28.3     457
28.32    488
28.34    485
28.36    501
28.38    492
28.4     447
28.42    364
28.44    303
28.46    234
28.48    279
28.5     307
28.52    346
28.54    417
28.56    459
28.58    401
28.6     368
28.62    333
28.64    388
28.66    453
28.68    508
28.7     527
28.72    541
28.74    496
28.76    467
28.78    327
28.8     312
28.82    264
28.84    376
28.86    440
28.88    474
28.9     505
28.92    484
28.94    517
28.96    510
28.98    436
29.0     451
29.02    423
29.04    499
29.06    513
29.08    486
29.1     440
29.12    422
29.14    435
29.16    443
29.18    426
29.2     455
29.22    436
29.24    438
29.26    428
29.28    369
29.3     324
29.32    315
29.34    335
29.36    414
29.38    422
29.4     410
29.42    390
29.44    332
29.46    331
29.48    360
29.5     334
29.52    356
29.54    367
29.56    381
29.58    398
29.6     404
29.62    415
29.64    377
29.66    415
29.68    435
29.7     437
29.72    455
29.74    437
29.76    458
29.78    417
29.8     360
29.82    347
29.84    299
29.86    305
29.88    364
29.9     426
29.92    440
29.94    515
29.96    542
29.98    547
30.0     533
30.02    520
30.04    495
30.06    480
30.08    469
30.1     475
30.12    374
30.14    388
30.16    347
30.18    393
30.2     440
30.22    459
30.24    509
30.26    493
30.28    440
30.3     415
30.32    343
30.34    352
30.36    394
30.38    448
30.4     548
30.42    560
30.44    545
30.46    507
30.48    398
30.5     325
30.52    297
30.54    243
30.56    264
30.58    245
30.6     305
30.62    352
30.64    384
30.66    452
30.68    442
30.7     385
30.72    340
30.74    227
30.76    211
30.78    284
30.8     369
30.82    491
30.84    587
30.86    604
30.88    586
30.9     452
30.92    391
30.94    322
30.96    321
30.98    407
31.0     405
31.02    442
31.04    445
31.06    383
31.08    389
31.1     292
31.12    327
31.14    388
31.16    394
31.18    472
31.2     439
31.22    392
31.24    421
31.26    346
31.28    347
31.3     359
31.32    416
31.34    518
31.36    563
31.38    623
31.4     573
31.42    539
31.44    516
31.46    359
31.48    317
31.5     251
31.52    235
31.54    284
31.56    343
31.58    400
31.6     409
31.62    468
31.64    476
31.66    507
31.68    508
31.7     462
31.72    450
31.74    423
31.76    382
31.78    307
31.8     259
31.82    243
31.84    304
31.86    362
31.88    411
31.9     469
31.92    488
31.94    507
31.96    457
31.98    412
32.0     398
32.02    366
32.04    419
32.06    410
32.08    485
32.1     571
32.12    648
32.14    681
32.16    672
32.18    612
32.2     534
32.22    503
32.24    495
32.26    519
32.28    570
32.3     625
32.32    652
32.34    681
32.36    683
32.38    645
32.4     612
32.42    559
32.44    504
32.46    474
32.48    461
32.5     415
32.52    424
32.54    509
32.56    525
32.58    597
32.6     581
32.62    507
32.64    507
32.66    514
32.68    522
32.7     554
32.72    606
32.74    662
32.76    649
32.78    673
32.8     636
32.82    590
32.84    597
32.86    577
32.88    523
32.9     543
32.92    577
32.94    632
32.96    673
32.98    774
33.0     771
33.02    794
33.04    773
33.06    685
33.08    606
33.1     591
33.12    649
33.14    728
33.16    785
33.18    901
33.2     912
33.22    981
33.24    1029
33.26    1084
33.28    1276
33.3     1501
33.32    1843
33.34    2223
33.36    2668
33.38    3207
33.4     3834
33.42    4525
33.44    5349
33.46    6297
33.48    7269
33.5     8188
33.52    8946
33.54    9442
33.56    9614
33.58    9391
33.6     8761
33.62    7839
33.64    6698
33.66    5521
33.68    4319
33.7     3378
33.72    2603
33.74    2019
33.76    1637
33.78    1372
33.8     1168
33.82    1108
33.84    1037
33.86    985
33.88    900
33.9     926
33.92    906
33.94    800
33.96    802
33.98    766
34.0     744
34.02    769
34.04    746
34.06    672
34.08    638
34.1     626
34.12    635
34.14    645
34.16    688
34.18    774
34.2     818
34.22    781
34.24    689
34.26    629
34.28    606
34.3     569
34.32    609
34.34    621
34.36    613
34.38    680
34.4     706
34.42    689
34.44    737
34.46    768
34.48    765
34.5     750
34.52    723
34.54    641
34.56    611
34.58    612
34.6     635
34.62    680
34.64    733
34.66    769
34.68    786
34.7     755
34.72    724
34.74    699
34.76    713
34.78    724
34.8     757
34.82    805
34.84    867
34.86    1012
34.88    1080
34.9     1174
34.92    1364
34.94    1592
34.96    1952
34.98    2379
35.0     3030
35.02    3981
35.04    5177
35.06    6607
35.08    7959
35.1     9144
35.12    9922
35.14    10139
35.16    9727
35.18    8737
35.2     7482
35.22    6237
35.24    4988
35.26    4049
35.28    3295
35.3     2688
35.32    2236
35.34    1903
35.36    1552
35.38    1285
35.4     1121
35.42    1028
35.44    932
35.46    924
35.48    852
35.5     769
35.52    792
35.54    734
35.56    697
35.58    688
35.6     654
35.62    618
35.64    602
35.66    599
35.68    607
35.7     674
35.72    751
35.74    770
35.76    836
35.78    865
35.8     811
35.82    812
35.84    757
35.86    731
35.88    691
35.9     662
35.92    692
35.94    687
35.96    712
35.98    758
36.0     820
36.02    854
36.04    868
36.06    891
36.08    917
36.1     981
36.12    1080
36.14    1117
36.16    1251
36.18    1411
36.2     1580
36.22    1752
36.24    1995
36.26    2277
36.28    2750
36.3     3357
36.32    4162
36.34    5251
36.36    6749
36.38    8675
36.4     11037
36.42    13720
36.44    16398
36.46    18692
36.48    20217
36.5     20644
36.52    19962
36.54    18278
36.56    15932
36.58    13257
36.6     10636
36.62    8396
36.64    6546
36.66    5143
36.68    4052
36.7     3215
36.72    2575
36.74    2096
36.76    1780
36.78    1547
36.8     1358
36.82    1306
36.84    1205
36.86    1160
36.88    1165
36.9     1104
36.92    1012
36.94    883
36.96    790
36.98    702
37.0     660
37.02    678
37.04    682
37.06    677
37.08    722
37.1     747
37.12    728
37.14    629
37.16    584
37.18    604
37.2     606
37.22    613
37.24    667
37.26    645
37.28    654
37.3     758
37.32    799
37.34    791
37.36    886
37.38    985
37.4     946
37.42    953
37.44    906
37.46    769
37.48    740
37.5     771
37.52    722
37.54    679
37.56    699
37.58    683
37.6     575
37.62    545
37.64    462
37.66    404
37.68    470
37.7     536
37.72    590
37.74    642
37.76    731
37.78    746
37.8     723
37.82    681
37.84    646
37.86    581
37.88    594
37.9     585
37.92    615
37.94    596
37.96    613
37.98    542
38.0     626
38.02    594
38.04    556
38.06    521
38.08    584
38.1     505
38.12    548
38.14    544
38.16    517
38.18    492
38.2     663
38.22    604
38.24    547
38.26    545
38.28    626
38.3     543
38.32    638
38.34    642
38.36    583
38.38    503
38.4     503
38.42    387
38.44    375
38.46    428
38.48    577
38.5     644
38.52    754
38.54    732
38.56    657
38.58    517
38.6     431
38.62    349
38.64    365
38.66    405
38.68    481
38.7     566
38.72    625
38.74    621
38.76    641
38.78    573
38.8     494
38.82    461
38.84    465
38.86    446
38.88    439
38.9     487
38.92    501
38.94    511
38.96    608
38.98    581
39.0     506
39.02    517
39.04    482
39.06    380
39.08    346
39.1     330
39.12    358
39.14    400
39.16    567
39.18    605
39.2     592
39.22    627
39.24    555
39.26    445
39.28    374
39.3     364
39.32    397
39.34    398
39.36    529
39.38    588
39.4     665
39.42    653
39.44    672
39.46    615
39.48    577
39.5     571
39.52    536
39.54    530
39.56    558
39.58    504
39.6     494
39.62    420
39.64    416
39.66    368
39.68    426
39.7     428
39.72    486
39.74    569
39.76    624
39.78    595
39.8     582
39.82    569
39.84    530
39.86    516
39.88    526
39.9     503
39.92    567
39.94    577
39.96    632
39.98    630
40.0     615
40.02    597
40.04    638
40.06    646
40.08    645
40.1     676
40.12    784
40.14    817
40.16    900
40.18    967
40.2     1003
40.22    936
40.24    914
40.26    894
40.28    792
40.3     771
40.32    812
40.34    841
40.36    911
40.38    1008
40.4     1043
40.42    1004
40.44    978
40.46    959
40.48    859
40.5     766
40.52    708
40.54    778
40.56    825
40.58    904
40.6     1029
40.62    1108
40.64    1153
40.66    1187
40.68    1172
40.7     1066
40.72    1008
40.74    965
40.76    919
40.78    919
40.8     987
40.82    1068
40.84    1151
40.86    1294
40.88    1385
40.9     1404
40.92    1413
40.94    1405
40.96    1421
40.98    1394
41.0     1448
41.02    1556
41.04    1696
41.06    1940
41.08    2167
41.1     2377
41.12    2612
41.14    2870
41.16    3051
41.18    3294
41.2     3611
41.22    3996
41.24    4548
41.26    5264
41.28    6101
41.3     7229
41.32    8616
41.34    10383
41.36    12482
41.38    15291
41.4     18852
41.42    23372
41.44    29187
41.46    36196
41.48    44121
41.5     52409
41.52    59867
41.54    65332
41.56    67896
41.58    67234
41.6     63260
41.62    56705
41.64    48712
41.66    40293
41.68    32372
41.7     25597
41.72    20129
41.74    15896
41.76    12778
41.78    10457
41.8     8688
41.82    7410
41.84    6387
41.86    5547
41.88    4855
41.9     4263
41.92    3755
41.94    3400
41.96    3099
41.98    2816
42.0     2555
42.02    2359
42.04    2133
42.06    2007
42.08    1963
42.1     1831
42.12    1734
42.14    1659
42.16    1597
42.18    1512
42.2     1434
42.22    1398
42.24    1347
42.26    1304
42.28    1213
42.3     1124
42.32    1069
42.34    1000
42.36    1026
42.38    1030
42.4     1103
42.42    1111
42.44    1130
42.46    1079
42.48    1013
42.5     930
42.52    826
42.54    785
42.56    838
42.58    915
42.6     994
42.62    1037
42.64    1115
42.66    1106
42.68    1063
42.7     980
42.72    873
42.74    819
42.76    807
42.78    827
42.8     830
42.82    886
42.84    869
42.86    862
42.88    844
42.9     789
42.92    710
42.94    639
42.96    638
42.98    637
43.0     638
43.02    644
43.04    651
43.06    726
43.08    752
43.1     789
43.12    824
43.14    820
43.16    856
43.18    870
43.2     885
43.22    811
43.24    754
43.26    749
43.28    612
43.3     592
43.32    528
43.34    518
43.36    558
43.38    601
43.4     699
43.42    697
43.44    722
43.46    776
43.48    672
43.5     695
43.52    641
43.54    634
43.56    594
43.58    563
43.6     632
43.62    649
43.64    648
43.66    642
43.68    588
43.7     581
43.72    590
43.74    580
43.76    557
43.78    573
43.8     653
43.82    682
43.84    665
43.86    671
43.88    701
43.9     644
43.92    619
43.94    560
43.96    512
43.98    459
44.0     466
44.02    482
44.04    496
44.06    559
44.08    714
44.1     691
44.12    682
44.14    667
44.16    676
44.18    641
44.2     598
44.22    572
44.24    513
44.26    487
44.28    471
44.3     418
44.32    432
44.34    420
44.36    482
44.38    558
44.4     621
44.42    655
44.44    716
44.46    706
44.48    578
44.5     503
44.52    441
44.54    416
44.56    373
44.58    404
44.6     494
44.62    612
44.64    721
44.66    741
44.68    689
44.7     665
44.72    645
44.74    599
44.76    554
44.78    560
44.8     651
44.82    670
44.84    687
44.86    710
44.88    768
44.9     786
44.92    901
44.94    1017
44.96    1264
44.98    1491
45.0     1671
45.02    1781
45.04    1866
45.06    1814
45.08    1648
45.1     1463
45.12    1340
45.14    1176
45.16    1128
45.18    1116
45.2     1083
45.22    1075
45.24    991
45.26    919
45.28    780
45.3     753
45.32    645
45.34    535
45.36    572
45.38    607
45.4     653
45.42    617
45.44    588
45.46    653
45.48    607
45.5     589
45.52    552
45.54    535
45.56    587
45.58    606
45.6     622
45.62    630
45.64    644
45.66    618
45.68    535
45.7     496
45.72    467
45.74    425
45.76    420
45.78    432
45.8     380
45.82    414
45.84    427
45.86    475
45.88    521
45.9     600
45.92    606
45.94    660
45.96    674
45.98    675
46.0     608
46.02    595
46.04    600
46.06    614
46.08    596
46.1     536
46.12    431
46.14    404
46.16    333
46.18    358
46.2     381
46.22    452
46.24    554
46.26    607
46.28    610
46.3     576
46.32    598
46.34    584
46.36    553
46.38    556
46.4     552
46.42    556
46.44    549
46.46    554
46.48    549
46.5     544
46.52    548
46.54    517
46.56    496
46.58    464
46.6     423
46.62    376
46.64    410
46.66    449
46.68    488
46.7     457
46.72    480
46.74    491
46.76    423
46.78    387
46.8     336
46.82    372
46.84    423
46.86    448
46.88    513
46.9     548
46.92    622
46.94    621
46.96    603
46.98    596
47.0     570
47.02    538
47.04    475
47.06    437
47.08    434
47.1     416
47.12    486
47.14    506
47.16    570
47.18    604
47.2     622
47.22    585
47.24    515
47.26    489
47.28    440
47.3     386
47.32    398
47.34    397
47.36    486
47.38    541
47.4     607
47.42    601
47.44    617
47.46    556
47.48    427
47.5     384
47.52    329
47.54    306
47.56    389
47.58    426
47.6     569
47.62    577
47.64    640
47.66    583
47.68    552
47.7     542
47.72    420
47.74    426
47.76    469
47.78    495
47.8     556
47.82    591
47.84    667
47.86    657
47.88    625
47.9     556
47.92    465
47.94    451
47.96    408
47.98    381
48.0     379
48.02    483
48.04    519
48.06    500
48.08    515
48.1     514
48.12    485
48.14    473
48.16    478
48.18    507
48.2     571
48.22    655
48.24    640
48.26    612
48.28    620
48.3     599
48.32    563
48.34    589
48.36    575
48.38    588
48.4     560
48.42    516
48.44    443
48.46    361
48.48    338
48.5     312
48.52    349
48.54    371
48.56    418
48.58    496
48.6     541
48.62    552
48.64    639
48.66    630
48.68    663
48.7     603
48.72    517
48.74    407
48.76    369
48.78    358
48.8     364
48.82    393
48.84    502
48.86    584
48.88    623
48.9     610
48.92    523
48.94    463
48.96    417
48.98    413
49.0     406
49.02    396
49.04    408
49.06    465
49.08    439
49.1     451
49.12    390
49.14    363
49.16    357
49.18    373
49.2     362
49.22    396
49.24    441
49.26    543
49.28    574
49.3     549
49.32    562
49.34    585
49.36    571
49.38    583
49.4     537
49.42    490
49.44    382
49.46    309
49.48    274
49.5     214
49.52    317
49.54    440
49.56    493
49.58    598
49.6     596
49.62    535
49.64    468
49.66    408
49.68    380
49.7     336
49.72    325
49.74    326
49.76    326
49.78    363
49.8     343
49.82    321
49.84    370
49.86    316
49.88    309
49.9     355
49.92    407
49.94    466
49.96    487
49.98    484
50.0     447
50.02    388
50.04    354
50.06    245
50.08    255
50.1     297
50.12    424
50.14    520
50.16    537
50.18    516
50.2     567
50.22    529
50.24    484
50.26    378
50.28    339
50.3     334
50.32    388
50.34    352
50.36    330
50.38    310
50.4     406
50.42    414
50.44    459
50.46    485
50.48    539
50.5     614
50.52    653
50.54    559
50.56    532
50.58    451
50.6     359
50.62    326
50.64    282
50.66    194
50.68    189
50.7     259
50.72    310
50.74    349
50.76    371
50.78    428
50.8     504
50.82    552
50.84    516
50.86    456
50.88    469
50.9     521
50.92    449
50.94    441
50.96    385
50.98    372
51.0     331
51.02    292
51.04    263
51.06    268
51.08    308
51.1     453
51.12    482
51.14    578
51.16    586
51.18    580
51.2     515
51.22    517
51.24    465
51.26    410
51.28    388
51.3     443
51.32    486
51.34    508
51.36    447
51.38    428
51.4     462
51.42    494
51.44    462
51.46    399
51.48    422
51.5     449
51.52    511
51.54    467
51.56    403
51.58    370
51.6     435
51.62    414
51.64    378
51.66    347
51.68    418
51.7     450
51.72    473
51.74    418
51.76    416
51.78    394
51.8     435
51.82    389
51.84    375
51.86    358
51.88    417
51.9     417
51.92    411
51.94    416
51.96    468
51.98    474
52.0     561
52.02    537
52.04    605
52.06    613
52.08    665
52.1     685
52.12    680
52.14    677
52.16    632
52.18    550
52.2     536
52.22    475
52.24    448
52.26    433
52.28    458
52.3     526
52.32    556
52.34    606
52.36    616
52.38    634
52.4     648
52.42    619
52.44    536
52.46    506
52.48    463
52.5     445
52.52    387
52.54    419
52.56    433
52.58    425
52.6     480
52.62    530
52.64    574
52.66    661
52.68    658
52.7     679
52.72    698
52.74    767
52.76    717
52.78    655
52.8     606
52.82    637
52.84    616
52.86    624
52.88    580
52.9     625
52.92    668
52.94    735
52.96    735
52.98    742
53.0     760
53.02    882
53.04    905
53.06    984
53.08    1012
53.1     987
53.12    997
53.14    1018
53.16    1058
53.18    1158
53.2     1284
53.22    1481
53.24    1667
53.26    1935
53.28    2152
53.3     2378
53.32    2664
53.34    3041
53.36    3550
53.38    4062
53.4     4519
53.42    5031
53.44    5485
53.46    5802
53.48    5889
53.5     5763
53.52    5450
53.54    5068
53.56    4599
53.58    3990
53.6     3403
53.62    2883
53.64    2462
53.66    2081
53.68    1762
53.7     1505
53.72    1329
53.74    1252
53.76    1226
53.78    1191
53.8     1142
53.82    1094
53.84    1040
53.86    997
53.88    912
53.9     772
53.92    647
53.94    627
53.96    569
53.98    552
54.0     499
54.02    498
54.04    527
54.06    589
54.08    626
54.1     618
54.12    568
54.14    618
54.16    554
54.18    515
54.2     447
54.22    403
54.24    400
54.26    460
54.28    475
54.3     478
54.32    455
54.34    534
54.36    529
54.38    529
54.4     454
54.42    445
54.44    454
54.46    485
54.48    426
54.5     410
54.52    451
54.54    507
54.56    528
54.58    540
54.6     475
54.62    580
54.64    566
54.66    565
54.68    499
54.7     493
54.72    504
54.74    500
54.76    468
54.78    422
54.8     389
54.82    380
54.84    333
54.86    351
54.88    309
54.9     338
54.92    442
54.94    510
54.96    516
54.98    511
55.0     472
55.02    409
55.04    461
55.06    394
55.08    368
55.1     386
55.12    457
55.14    427
55.16    414
55.18    407
55.2     395
55.22    457
55.24    530
55.26    504
55.28    568
55.3     577
55.32    588
55.34    512
55.36    489
55.38    463
55.4     464
55.42    467
55.44    489
55.46    557
55.48    629
55.5     637
55.52    651
55.54    579
55.56    592
55.58    523
55.6     470
55.62    388
55.64    400
55.66    419
55.68    417
55.7     429
55.72    445
55.74    454
55.76    490
55.78    463
55.8     470
55.82    484
55.84    519
55.86    518
55.88    557
55.9     593
55.92    558
55.94    517
55.96    507
55.98    472
56.0     420
56.02    429
56.04    373
56.06    338
56.08    381
56.1     411
56.12    436
56.14    483
56.16    534
56.18    537
56.2     539
56.22    562
56.24    468
56.26    425
56.28    411
56.3     426
56.32    458
56.34    451
56.36    383
56.38    432
56.4     469
56.42    481
56.44    443
56.46    447
56.48    465
56.5     521
56.52    513
56.54    445
56.56    412
56.58    458
56.6     457
56.62    520
56.64    523
56.66    606
56.68    652
56.7     712
56.72    633
56.74    663
56.76    644
56.78    566
56.8     534
56.82    520
56.84    462
56.86    440
56.88    417
56.9     452
56.92    459
56.94    578
56.96    603
56.98    577
57.0     604
57.02    621
57.04    603
57.06    597
57.08    660
57.1     682
57.12    702
57.14    703
57.16    685
57.18    642
57.2     670
57.22    648
57.24    602
57.26    589
57.28    605
57.3     580
57.32    514
57.34    488
57.36    488
57.38    524
57.4     596
57.42    658
57.44    767
57.46    814
57.48    882
57.5     899
57.52    840
57.54    784
57.56    741
57.58    657
57.6     652
57.62    644
57.64    673
57.66    692
57.68    711
57.7     843
57.72    898
57.74    994
57.76    1080
57.78    1201
57.8     1324
57.82    1362
57.84    1455
57.86    1489
57.88    1511
57.9     1623
57.92    1708
57.94    1802
57.96    1968
57.98    2265
58.0     2542
58.02    2866
58.04    3261
58.06    3623
58.08    4098
58.1     4706
58.12    5407
58.14    6175
58.16    7180
58.18    8337
58.2     9515
58.22    10700
58.24    11645
58.26    12349
58.28    12789
58.3     12793
58.32    12426
58.34    11617
58.36    10558
58.38    9423
58.4     8246
58.42    7150
58.44    6079
58.46    5261
58.48    4523
58.5     3951
58.52    3516
58.54    3065
58.56    2749
58.58    2504
58.6     2309
58.62    2150
58.64    1986
58.66    1793
58.68    1534
58.7     1430
58.72    1233
58.74    1134
58.76    1064
58.78    999
58.8     989
58.82    982
58.84    982
58.86    935
58.88    928
58.9     903
58.92    840
58.94    843
58.96    777
58.98    710
59.0     699
59.02    670
59.04    634
59.06    607
59.08    565
59.1     509
59.12    540
59.14    530
59.16    524
59.18    532
59.2     577
59.22    586
59.24    595
59.26    596
59.28    562
59.3     587
59.32    551
59.34    465
59.36    449
59.38    418
59.4     404
59.42    356
59.44    357
59.46    286
59.48    384
59.5     475
59.52    465
59.54    530
59.56    598
59.58    651
59.6     672
59.62    664
59.64    602
59.66    555
59.68    583
59.7     546
59.72    564
59.74    592
59.76    545
59.78    551
59.8     532
59.82    553
59.84    548
59.86    561
59.88    511
59.9     573
59.92    704
59.94    728
59.96    720
59.98    746
60.0     674
60.02    662
60.04    606
60.06    474
60.08    357
60.1     305
60.12    294
60.14    239
60.16    287
60.18    307
60.2     325
60.22    443
60.24    472
60.26    464
60.28    528
60.3     534
60.32    563
60.34    604
60.36    651
60.38    590
60.4     578
60.42    535
60.44    474
60.46    434
60.48    482
60.5     463
60.52    480
60.54    523
60.56    561
60.58    579
60.6     625
60.62    644
60.64    648
60.66    642
60.68    618
60.7     531
60.72    443
60.74    374
60.76    357
60.78    380
60.8     490
60.82    585
60.84    651
60.86    698
60.88    714
60.9     684
60.92    641
60.94    594
60.96    508
60.98    460
61.0     475
61.02    444
61.04    477
61.06    495
61.08    535
61.1     545
61.12    600
61.14    634
61.16    527
61.18    469
61.2     466
61.22    461
61.24    488
61.26    495
61.28    555
61.3     561
61.32    622
61.34    665
61.36    642
61.38    611
61.4     623
61.42    607
61.44    572
61.46    588
61.48    619
61.5     605
61.52    624
61.54    693
61.56    753
61.58    761
61.6     795
61.62    771
61.64    742
61.66    746
61.68    816
61.7     865
61.72    887
61.74    949
61.76    988
61.78    1092
61.8     1223
61.82    1343
61.84    1456
61.86    1609
61.88    1881
61.9     2137
61.92    2411
61.94    2797
61.96    3297
61.98    3929
62.0     4727
62.02    5631
62.04    6682
62.06    7838
62.08    9191
62.1     10480
62.12    11615
62.14    12574
62.16    13148
62.18    13196
62.2     12914
62.22    12215
62.24    11316
62.26    10268
62.28    9187
62.3     8111
62.32    7100
62.34    6212
62.36    5441
62.38    4730
62.4     4103
62.42    3554
62.44    3189
62.46    2947
62.48    2594
62.5     2391
62.52    2204
62.54    1963
62.56    1819
62.58    1674
62.6     1452
62.62    1320
62.64    1220
62.66    1186
62.68    1025
62.7     975
62.72    924
62.74    799
62.76    757
62.78    751
62.8     668
62.82    641
62.84    598
62.86    607
62.88    602
62.9     608
62.92    616
62.94    660
62.96    678
62.98    723
63.0     746
63.02    755
63.04    750
63.06    655
63.08    594
63.1     490
63.12    419
63.14    405
63.16    391
63.18    409
63.2     431
63.22    423
63.24    462
63.26    462
63.28    547
63.3     550
63.32    630
63.34    680
63.36    716
63.38    707
63.4     664
63.42    596
63.44    525
63.46    459
63.48    407
63.5     322
63.52    336
63.54    304
63.56    331
63.58    343
63.6     438
63.62    493
63.64    491
63.66    566
63.68    657
63.7     642
63.72    709
63.74    690
63.76    627
63.78    542
63.8     516
63.82    499
63.84    414
63.86    365
63.88    393
63.9     328
63.92    416
63.94    404
63.96    368
63.98    340
64.0     282
64.02    349
64.04    334
64.06    357
64.08    455
64.1     444
64.12    502
64.14    497
64.16    560
64.18    600
64.2     529
64.22    595
64.24    568
64.26    611
64.28    585
64.3     516
64.32    487
64.34    426
64.36    486
64.38    519
64.4     489
64.42    549
64.44    531
64.46    654
64.48    733
64.5     799
64.52    872
64.54    893
64.56    956
64.58    1024
64.6     1071
64.62    1163
64.64    1256
64.66    1467
64.68    1690
64.7     1889
64.72    2182
64.74    2427
64.76    2714
64.78    3042
64.8     3287
64.82    3504
64.84    3586
64.86    3556
64.88    3504
64.9     3321
64.92    3190
64.94    2957
64.96    2735
64.98    2535
65.0     2331
65.02    2196
65.04    1999
65.06    1765
65.08    1598
65.1     1382
65.12    1275
65.14    1136
65.16    979
65.18    841
65.2     719
65.22    712
65.24    754
65.26    737
65.28    706
65.3     699
65.32    729
65.34    737
65.36    689
65.38    636
65.4     530
65.42    502
65.44    491
65.46    461
65.48    509
65.5     532
65.52    553
65.54    512
65.56    510
65.58    510
65.6     464
65.62    418
65.64    400
65.66    430
65.68    520
65.7     578
65.72    591
65.74    556
65.76    515
65.78    492
65.8     451
65.82    394
65.84    373
65.86    368
65.88    460
65.9     541
65.92    575
65.94    610
65.96    538
65.98    520
66.0     500
66.02    470
66.04    462
66.06    423
66.08    457
66.1     422
66.12    366
66.14    368
66.16    327
66.18    362
66.2     468
66.22    473
66.24    538
66.26    546
66.28    561
66.3     534
66.32    491
66.34    500
66.36    504
66.38    482
66.4     451
66.42    346
66.44    346
66.46    360
66.48    342
66.5     381
66.52    398
66.54    431
66.56    461
66.58    443
66.6     443
66.62    395
66.64    394
66.66    356
66.68    315
66.7     291
66.72    276
66.74    285
66.76    259
66.78    332
66.8     347
66.82    335
66.84    391
66.86    432
66.88    489
66.9     506
66.92    568
66.94    613
66.96    574
66.98    562
67.0     459
67.02    407
67.04    401
67.06    415
67.08    417
67.1     428
67.12    469
67.14    495
67.16    508
67.18    477
67.2     472
67.22    471
67.24    488
67.26    471
67.28    457
67.3     455
67.32    435
67.34    391
67.36    382
67.38    336
67.4     325
67.42    334
67.44    357
67.46    342
67.48    368
67.5     453
67.52    494
67.54    511
67.56    549
67.58    587
67.6     580
67.62    618
67.64    600
67.66    593
67.68    578
67.7     551
67.72    515
67.74    478
67.76    389
67.78    376
67.8     361
67.82    315
67.84    343
67.86    374
67.88    383
67.9     372
67.92    386
67.94    414
67.96    419
67.98    505
68.0     555
68.02    498
68.04    515
68.06    481
68.08    460
68.1     462
68.12    468
68.14    493
68.16    476
68.18    416
68.2     369
68.22    352
68.24    339
68.26    381
68.28    417
68.3     499
68.32    596
68.34    644
68.36    670
68.38    630
68.4     652
68.42    686
68.44    608
68.46    557
68.48    522
68.5     530
68.52    568
68.54    605
68.56    628
68.58    731
68.6     786
68.62    807
68.64    824
68.66    890
68.68    1007
68.7     1071
68.72    1138
68.74    1272
68.76    1408
68.78    1574
68.8     1629
68.82    1763
68.84    1943
68.86    2146
68.88    2344
68.9     2540
68.92    2798
68.94    3022
68.96    3185
68.98    3230
69.0     3240
69.02    3159
69.04    3056
69.06    2847
69.08    2584
69.1     2337
69.12    2103
69.14    1906
69.16    1713
69.18    1545
69.2     1425
69.22    1266
69.24    1183
69.26    1026
69.28    930
69.3     845
69.32    792
69.34    825
69.36    855
69.38    874
69.4     839
69.42    761
69.44    748
69.46    691
69.48    606
69.5     575
69.52    521
69.54    489
69.56    462
69.58    436
69.6     382
69.62    394
69.64    469
69.66    520
69.68    547
69.7     556
69.72    523
69.74    468
69.76    430
69.78    401
69.8     401
69.82    441
69.84    517
69.86    583
69.88    665
69.9     659
69.92    633
69.94    614
69.96    588
69.98    492
70.0     426
70.02    397
70.04    350
70.06    321
70.08    370
70.1     400
70.12    404
70.14    468
70.16    521
70.18    569
70.2     656
70.22    735
70.24    779
70.26    853
70.28    960
70.3     964
70.32    972
70.34    994
70.36    1020
70.38    1064
70.4     1053
70.42    1037
70.44    1090
70.46    1122
70.48    1211
70.5     1258
70.52    1405
70.54    1557
70.56    1666
70.58    1778
70.6     1779
70.62    1783
70.64    1784
70.66    1707
70.68    1576
70.7     1456
70.72    1296
70.74    1112
70.76    939
70.78    820
70.8     733
70.82    659
70.84    615
70.86    575
70.88    544
70.9     526
70.92    544
70.94    552
70.96    621
70.98    690
71.0     731
71.02    718
71.04    692
71.06    700
71.08    655
71.1     576
71.12    577
71.14    560
71.16    555
71.18    536
71.2     502
71.22    474
71.24    486
71.26    461
71.28    416
71.3     387
71.32    425
71.34    452
71.36    401
71.38    362
71.4     282
71.42    281
71.44    288
71.46    283
71.48    375
71.5     480
71.52    590
71.54    628
71.56    639
71.58    665
71.6     639
71.62    703
71.64    687
71.66    680
71.68    706
71.7     651
71.72    609
71.74    531
71.76    478
71.78    451
71.8     437
71.82    477
71.84    492
71.86    486
71.88    496
71.9     422
71.92    420
71.94    478
71.96    539
71.98    566
72.0     649
72.02    686
72.04    730
72.06    691
72.08    674
72.1     634
72.12    663
72.14    761
72.16    756
72.18    800
72.2     860
72.22    893
72.24    1016
72.26    1095
72.28    1222
72.3     1377
72.32    1535
72.34    1659
72.36    1772
72.38    1979
72.4     2124
72.42    2376
72.44    2653
72.46    2926
72.48    3171
72.5     3451
72.52    3652
72.54    3847
72.56    4034
72.58    4023
72.6     3914
72.62    3766
72.64    3534
72.66    3243
72.68    2944
72.7     2722
72.72    2451
72.74    2275
72.76    2118
72.78    1920
72.8     1734
72.82    1591
72.84    1489
72.86    1335
72.88    1258
72.9     1181
72.92    1057
72.94    960
72.96    874
72.98    826
73.0     744
73.02    729
73.04    702
73.06    660
73.08    701
73.1     640
73.12    672
73.14    662
73.16    653
73.18    687
73.2     708
73.22    765
73.24    800
73.26    828
73.28    835
73.3     774
73.32    814
73.34    759
73.36    759
73.38    771
73.4     825
73.42    872
73.44    906
73.46    964
73.48    958
73.5     1009
73.52    1014
73.54    950
73.56    933
73.58    902
73.6     907
73.62    855
73.64    886
73.66    924
73.68    930
73.7     975
73.72    951
73.74    880
73.76    859
73.78    811
73.8     740
73.82    653
73.84    629
73.86    594
73.88    614
73.9     592
73.92    565
73.94    534
73.96    591
73.98    595
74.0     593
74.02    673
74.04    791
74.06    903
74.08    1022
74.1     1036
74.12    1150
74.14    1208
74.16    1328
74.18    1434
74.2     1539
74.22    1675
74.24    1725
74.26    1792
74.28    1800
74.3     1801
74.32    1897
74.34    1887
74.36    1887
74.38    1867
74.4     1747
74.42    1652
74.44    1572
74.46    1553
74.48    1462
74.5     1475
74.52    1485
74.54    1453
74.56    1414
74.58    1357
74.6     1274
74.62    1285
74.64    1324
74.66    1341
74.68    1334
74.7     1380
74.72    1432
74.74    1468
74.76    1545
74.78    1619
74.8     1676
74.82    1793
74.84    1885
74.86    1836
74.88    1826
74.9     1791
74.92    1790
74.94    1669
74.96    1576
74.98    1479
75.0     1369
75.02    1331
75.04    1236
75.06    1101
75.08    1089
75.1     1006
75.12    915
75.14    757
75.16    704
75.18    690
75.2     673
75.22    705
75.24    659
75.26    639
75.28    643
75.3     579
75.32    543
75.34    509
75.36    536
75.38    595
75.4     615
75.42    574
75.44    483
75.46    428
75.48    391
75.5     367
75.52    393
75.54    393
75.56    394
75.58    483
75.6     472
75.62    469
75.64    495
75.66    531
75.68    542
75.7     596
75.72    596
75.74    566
75.76    567
75.78    580
75.8     466
75.82    450
75.84    354
75.86    319
75.88    310
75.9     352
75.92    340
75.94    377
75.96    410
75.98    349
76.0     302
76.02    344
76.04    294
76.06    303
76.08    363
76.1     360
76.12    341
76.14    356
76.16    358
76.18    382
76.2     471
76.22    573
76.24    601
76.26    586
76.28    622
76.3     552
76.32    531
76.34    540
76.36    507
76.38    497
76.4     447
76.42    356
76.44    323
76.46    300
76.48    300
76.5     351
76.52    437
76.54    482
76.56    524
76.58    555
76.6     563
76.62    520
76.64    587
76.66    564
76.68    521
76.7     511
76.72    501
76.74    415
76.76    443
76.78    416
76.8     418
76.82    373
76.84    427
76.86    461
76.88    497
76.9     545
76.92    630
76.94    611
76.96    661
76.98    633
77.0     618
77.02    660
77.04    705
77.06    761
77.08    731
77.1     771
77.12    787
77.14    734
77.16    726
77.18    720
77.2     769
77.22    899
77.24    960
77.26    1062
77.28    1081
77.3     1212
77.32    1308
77.34    1372
77.36    1480
77.38    1657
77.4     1913
77.42    2228
77.44    2499
77.46    2821
77.48    3105
77.5     3517
77.52    3785
77.54    4018
77.56    4209
77.58    4343
77.6     4436
77.62    4431
77.64    4280
77.66    4115
77.68    3863
77.7     3629
77.72    3308
77.74    3076
77.76    2818
77.78    2603
77.8     2438
77.82    2276
77.84    2136
77.86    1974
77.88    1774
77.9     1630
77.92    1427
77.94    1299
77.96    1146
77.98    1044
78.0     926
78.02    839
78.04    799
78.06    782
78.08    791
78.1     829
78.12    766
78.14    765
78.16    721
78.18    604
78.2     556
78.22    499
78.24    512
78.26    538
78.28    496
78.3     522
78.32    477
78.34    460
78.36    415
78.38    375
78.4     469
78.42    456
78.44    512
78.46    494
78.48    493
78.5     521
78.52    512
78.54    412
78.56    386
78.58    450
78.6     532
78.62    526
78.64    557
78.66    607
78.68    622
78.7     544
78.72    459
78.74    349
78.76    367
78.78    423
78.8     440
78.82    407
78.84    415
78.86    461
78.88    431
78.9     427
78.92    429
78.94    545
78.96    573
78.98    604
79.0     567
79.02    461
79.04    410
79.06    382
79.08    392
79.1     416
79.12    450
79.14    514
79.16    469
79.18    411
79.2     421
79.22    337
79.24    314
79.26    318
79.28    395
79.3     395
79.32    419
79.34    350
79.36    260
79.38    243
79.4     289
79.42    283
79.44    259
79.46    290
79.48    438
79.5     516
79.52    526
79.54    451
79.56    437
79.58    496
79.6     507
79.62    491
79.64    435
79.66    344
79.68    399
79.7     371
79.72    252
79.74    188
79.76    207
79.78    316
79.8     372
79.82    375
79.84    388
79.86    390
79.88    457
79.9     482
79.92    520
79.94    558
79.96    652
79.98    666
80.0     583
80.02    526
80.04    465
80.06    498
80.08    504
80.1     533
80.12    616
80.14    600
80.16    566
80.18    466
80.2     405
80.22    442
80.24    473
80.26    537
80.28    605
80.3     592
80.32    632
80.34    568
80.36    471
80.38    493
80.4     508
80.42    539
80.44    527
80.46    452
80.48    327
80.5     201
80.52    179
80.54    204
80.56    222
80.58    317
80.6     400
80.62    390
80.64    415
80.66    425
80.68    396
80.7     454
80.72    562
80.74    572
80.76    550
80.78    515
80.8     473
80.82    331
80.84    307
80.86    368
80.88    331
80.9     369
80.92    356
80.94    303
80.96    321
80.98    328
81.0     307
81.02    256
81.04    284
81.06    432
81.08    417
81.1     411
81.12    403
81.14    395
81.16    411
81.18    362
81.2     356
81.22    373
81.24    414
81.26    439
81.28    402
81.3     346
81.32    316
81.34    300
81.36    304
81.38    359
81.4     479
81.42    561
81.44    569
81.46    535
81.48    540
81.5     504
81.52    432
81.54    399
81.56    350
81.58    413
81.6     401
81.62    340
81.64    269
81.66    244
81.68    282
81.7     278
81.72    322
81.74    361
81.76    375
81.78    441
81.8     395
81.82    352
81.84    357
81.86    385
81.88    428
81.9     450
81.92    446
81.94    470
81.96    418
81.98    422
82.0     370
82.02    379
82.04    413
82.06    440
82.08    400
82.1     409
82.12    365
82.14    378
82.16    328
82.18    344
82.2     363
82.22    386
82.24    368
82.26    402
82.28    374
82.3     415
82.32    394
82.34    409
82.36    334
82.38    323
82.4     311
82.42    274
82.44    258
82.46    295
82.48    309
82.5     353
82.52    354
82.54    422
82.56    382
82.58    382
82.6     375
82.62    397
82.64    366
82.66    362
82.68    398
82.7     449
82.72    424
82.74    463
82.76    443
82.78    372
82.8     332
82.82    304
82.84    270
82.86    278
82.88    313
82.9     357
82.92    265
82.94    216
82.96    173
82.98    160
83.0     182
83.02    259
83.04    361
83.06    456
83.08    531
83.1     582
83.12    539
83.14    452
83.16    458
83.18    499
83.2     475
83.22    548
83.24    506
83.26    475
83.28    424
83.3     389
83.32    342
83.34    235
83.36    236
83.38    299
83.4     335
83.42    397
83.44    304
83.46    278
83.48    250
83.5     254
83.52    249
83.54    224
83.56    293
83.58    413
83.6     532
83.62    593
83.64    596
83.66    593
83.68    568
83.7     574
83.72    519
83.74    448
83.76    431
83.78    414
83.8     465
83.82    454
83.84    407
83.86    326
83.88    280
83.9     279
83.92    233
83.94    230
83.96    176
83.98    198
84.0     247
84.02    263
84.04    316
84.06    326
84.08    417
84.1     501
84.12    544
84.14    535
84.16    490
84.18    467
84.2     384
84.22    330
84.24    320
84.26    262
84.28    329
84.3     353
84.32    398
84.34    378
84.36    438
84.38    434
84.4     440
84.42    425
84.44    447
84.46    445
84.48    518
84.5     543
84.52    554
84.54    490
84.56    500
84.58    483
84.6     458
84.62    388
84.64    418
84.66    413
84.68    412
84.7     435
84.72    420
84.74    367
84.76    390
84.78    425
84.8     440
84.82    474
84.84    553
84.86    547
84.88    526
84.9     500
84.92    467
84.94    433
84.96    400
84.98    395
85.0     422
85.02    449
85.04    437
85.06    374
85.08    350
85.1     284
85.12    351
85.14    350
85.16    311
85.18    312
85.2     371
85.22    439
85.24    455
85.26    449
85.28    422
85.3     342
85.32    413
85.34    401
85.36    422
85.38    423
85.4     425
85.42    518
85.44    573
85.46    572
85.48    497
85.5     424
85.52    411
85.54    438
85.56    426
85.58    317
85.6     181
85.62    171
85.64    171
85.66    212
85.68    203
85.7     229
85.72    250
85.74    300
85.76    281
85.78    265
85.8     226
85.82    275
85.84    329
85.86    485
85.88    573
85.9     619
85.92    585
85.94    559
85.96    524
85.98    500
86.0     444
86.02    436
86.04    432
86.06    568
86.08    652
86.1     604
86.12    541
86.14    480
86.16    455
86.18    451
86.2     422
86.22    501
86.24    545
86.26    677
86.28    750
86.3     741
86.32    760
86.34    711
86.36    744
86.38    763
86.4     802
86.42    893
86.44    890
86.46    896
86.48    915
86.5     886
86.52    890
86.54    890
86.56    891
86.58    899
86.6     880
86.62    875
86.64    838
86.66    717
86.68    632
86.7     593
86.72    595
86.74    653
86.76    628
86.78    612
86.8     552
86.82    544
86.84    519
86.86    381
86.88    307
86.9     322
86.92    315
86.94    401
86.96    501
86.98    534
87.0     578
87.02    678
87.04    705
87.06    636
87.08    561
87.1     493
87.12    382
87.14    391
87.16    401
87.18    357
87.2     382
87.22    394
87.24    378
87.26    375
87.28    385
87.3     378
87.32    393
87.34    375
87.36    295
87.38    283
87.4     277
87.42    249
87.44    298
87.46    318
87.48    387
87.5     393
87.52    410
87.54    311
87.56    237
87.58    234
87.6     249
87.62    285
87.64    374
87.66    400
87.68    452
87.7     447
87.72    403
87.74    381
87.76    337
87.78    321
87.8     323
87.82    403
87.84    460
87.86    405
87.88    407
87.9     406
87.92    373
87.94    369
87.96    373
87.98    350
88.0     364
88.02    430
88.04    427
88.06    286
88.08    292
88.1     256
88.12    236
88.14    287
88.16    310
88.18    329
88.2     374
88.22    406
88.24    401
88.26    358
88.28    359
88.3     361
88.32    358
88.34    432
88.36    337
88.38    337
88.4     347
88.42    311
88.44    304
88.46    271
88.48    284
88.5     349
88.52    331
88.54    330
88.56    252
88.58    308
88.6     340
88.62    316
88.64    366
88.66    355
88.68    355
88.7     393
88.72    359
88.74    381
88.76    384
88.78    393
88.8     357
88.82    389
88.84    431
88.86    447
88.88    397
88.9     484
88.92    444
88.94    529
88.96    523
88.98    521
89.0     480
89.02    447
89.04    434
89.06    393
89.08    345
89.1     330
89.12    277
89.14    301
89.16    339
89.18    282
89.2     252
89.22    166
89.24    165
89.26    133
89.28    155
89.3     223
89.32    261
89.34    357
89.36    424
89.38    444
89.4     522
89.42    503
89.44    506
89.46    520
89.48    516
89.5     559
89.52    584
89.54    613
89.56    529
89.58    523
89.6     487
89.62    459
89.64    427
89.66    369
89.68    355
89.7     417
89.72    544
89.74    534
89.76    474
89.78    497
89.8     473
89.82    470
89.84    497
89.86    447
89.88    465
89.9     493
89.92    454
89.94    465
89.96    476
89.98    454
90.0     399
