?
5.0      920
5.02     920
5.04     1193
5.06     1132
5.08     1151
5.1      1116
5.12     1134
5.14     1141
5.16     1142
5.18     1104
5.2      1074
5.22     1080
5.24     1090
5.26     1108
5.28     1080
5.3      1119
5.32     1161
5.34     1187
5.36     1199
5.38     1159
5.4      1154
5.42     1155
5.44     1139
5.46     1165
5.48     1157
5.5      1156
5.52     1187
5.54     1186
5.56     1173
5.58     1148
5.6      1105
5.62     1104
5.64     1081
5.66     1121
5.68     1109
5.7      1127
5.72     1151
5.74     1165
5.76     1161
5.78     1141
5.8      1093
5.82     1111
5.84     1107
5.86     1110
5.88     1089
5.9      1085
5.92     1094
5.94     1104
5.96     1095
5.98     1124
6.0      1172
6.02     1193
6.04     1236
6.06     1244
6.08     1205
6.1      1174
6.12     1150
6.14     1100
6.16     1094
6.18     1135
6.2      1134
6.22     1138
6.24     1182
6.26     1179
6.28     1132
6.3      1174
6.32     1135
6.34     1133
6.36     1183
6.38     1194
6.4      1167
6.42     1196
6.44     1196
6.46     1195
6.48     1159
6.5      1188
6.52     1142
6.54     1142
6.56     1137
6.58     1118
6.6      1105
6.62     1112
6.64     1102
6.66     1112
6.68     1101
6.7      1093
6.72     1081
6.74     1063
6.76     1082
6.78     1131
6.8      1132
6.82     1153
6.84     1162
6.86     1151
6.88     1190
6.9      1158
6.92     1147
6.94     1164
6.96     1193
6.98     1199
7.0      1156
7.02     1184
7.04     1107
7.06     1089
7.08     1127
7.1      1095
7.12     1087
7.14     1086
7.16     1099
7.18     1108
7.2      1117
7.22     1156
7.24     1130
7.26     1140
7.28     1174
7.3      1201
7.32     1168
7.34     1128
7.36     1184
7.38     1132
7.4      1128
7.42     1138
7.44     1134
7.46     1120
7.48     1133
7.5      1145
7.52     1108
7.54     1140
7.56     1177
7.58     1169
7.6      1191
7.62     1171
7.64     1163
7.66     1106
7.68     1069
7.7      1068
7.72     1031
7.74     1046
7.76     1015
7.78     1102
7.8      1108
7.82     1125
7.84     1129
7.86     1084
7.88     1148
7.9      1154
7.92     1121
7.94     1082
7.96     1074
7.98     1149
8.0      1101
8.02     1093
8.04     1033
8.06     1068
8.08     1088
8.1      1055
8.12     1078
8.14     1055
8.16     1097
8.18     1123
8.2      1116
8.22     1106
8.24     1098
8.26     1127
8.28     1050
8.3      1017
8.32     1046
8.34     988
8.36     974
8.38     1015
8.4      1032
8.42     1044
8.44     1069
8.46     1073
8.48     1076
8.5      1112
8.52     1115
8.54     1050
8.56     1101
8.58     1084
8.6      1083
8.62     1097
8.64     1065
8.66     1074
8.68     1075
8.7      1051
8.72     983
8.74     966
8.76     1026
8.78     1020
8.8      1063
8.82     1061
8.84     1028
8.86     1044
8.88     1023
8.9      983
8.92     959
8.94     954
8.96     990
8.98     1000
9.0      1009
9.02     1004
9.04     970
9.06     985
9.08     979
9.1      934
9.12     935
9.14     915
9.16     929
9.18     927
9.2      924
9.22     948
9.24     944
9.26     977
9.28     976
9.3      996
9.32     953
9.34     954
9.36     921
9.38     909
9.4      870
9.42     868
9.44     878
9.46     907
9.48     924
9.5      977
9.52     943
9.54     975
9.56     902
9.58     922
9.6      856
9.62     871
9.64     859
9.66     860
9.68     849
9.7      842
9.72     796
9.74     789
9.76     748
9.78     803
9.8      786
9.82     848
9.84     819
9.86     830
9.88     772
9.9      776
9.92     738
9.94     735
9.96     749
9.98     756
10.0     719
10.02    747
10.04    808
10.06    798
10.08    802
10.1     853
10.12    861
10.14    866
10.16    830
10.18    802
10.2     724
10.22    752
10.24    800
10.26    761
10.28    757
10.3     776
10.32    797
10.34    767
10.36    726
10.38    744
10.4     668
10.42    692
10.44    712
10.46    760
10.48    734
10.5     812
10.52    830
10.54    794
10.56    800
10.58    798
10.6     787
10.62    781
10.64    831
10.66    850
10.68    824
10.7     850
10.72    856
10.74    825
10.76    846
10.78    852
10.8     837
10.82    838
10.84    875
10.86    839
10.88    826
10.9     821
10.92    802
10.94    795
10.96    800
10.98    809
11.0     772
11.02    792
11.04    840
11.06    887
11.08    839
11.1     832
11.12    806
11.14    843
11.16    836
11.18    845
11.2     867
11.22    888
11.24    969
11.26    1022
11.28    912
11.3     911
11.32    902
11.34    892
11.36    900
11.38    980
11.4     1070
11.42    1036
11.44    1036
11.46    1028
11.48    935
11.5     929
11.52    900
11.54    875
11.56    934
11.58    977
11.6     959
11.62    931
11.64    970
11.66    905
11.68    887
11.7     937
11.72    978
11.74    1013
11.76    1075
11.78    1095
11.8     1039
11.82    1091
11.84    1089
11.86    1024
11.88    1018
11.9     1061
11.92    1035
11.94    1040
11.96    1060
11.98    1017
12.0     960
12.02    1032
12.04    1013
12.06    1045
12.08    1114
12.1     1197
12.12    1175
12.14    1197
12.16    1192
12.18    1177
12.2     1157
12.22    1186
12.24    1130
12.26    1142
12.28    1111
12.3     1104
12.32    1100
12.34    1128
12.36    1116
12.38    1134
12.4     1128
12.42    1127
12.44    1157
12.46    1115
12.48    1047
12.5     1091
12.52    1058
12.54    1062
12.56    1070
12.58    1085
12.6     1094
12.62    1104
12.64    1162
12.66    1185
12.68    1215
12.7     1237
12.72    1196
12.74    1255
12.76    1225
12.78    1196
12.8     1197
12.82    1191
12.84    1180
12.86    1171
12.88    1197
12.9     1160
12.92    1170
12.94    1176
12.96    1124
12.98    1138
13.0     1150
13.02    1164
13.04    1160
13.06    1157
13.08    1239
13.1     1197
13.12    1225
13.14    1242
13.16    1216
13.18    1217
13.2     1242
13.22    1264
13.24    1219
13.26    1231
13.28    1200
13.3     1195
13.32    1209
13.34    1170
13.36    1133
13.38    1216
13.4     1270
13.42    1250
13.44    1235
13.46    1242
13.48    1186
13.5     1201
13.52    1187
13.54    1134
13.56    1171
13.58    1263
13.6     1309
13.62    1277
13.64    1262
13.66    1279
13.68    1286
13.7     1238
13.72    1162
13.74    1140
13.76    1148
13.78    1127
13.8     1143
13.82    1133
13.84    1134
13.86    1227
13.88    1262
13.9     1219
13.92    1187
13.94    1244
13.96    1230
13.98    1200
14.0     1218
14.02    1211
14.04    1239
14.06    1291
14.08    1263
14.1     1227
14.12    1224
14.14    1227
14.16    1174
14.18    1172
14.2     1121
14.22    1099
14.24    1153
14.26    1189
14.28    1191
14.3     1189
14.32    1183
14.34    1199
14.36    1235
14.38    1195
14.4     1180
14.42    1249
14.44    1246
14.46    1278
14.48    1289
14.5     1209
14.52    1170
14.54    1221
14.56    1219
14.58    1139
14.6     1191
14.62    1233
14.64    1207
14.66    1244
14.68    1145
14.7     1092
14.72    1182
14.74    1263
14.76    1271
14.78    1219
14.8     1253
14.82    1285
14.84    1362
14.86    1416
14.88    1374
14.9     1432
14.92    1521
14.94    1485
14.96    1397
14.98    1295
15.0     1267
15.02    1265
15.04    1292
15.06    1275
15.08    1275
15.1     1293
15.12    1272
15.14    1232
15.16    1198
15.18    1164
15.2     1132
15.22    1132
15.24    1143
15.26    1119
15.28    1082
15.3     1172
15.32    1200
15.34    1197
15.36    1241
15.38    1255
15.4     1198
15.42    1248
15.44    1286
15.46    1261
15.48    1184
15.5     1224
15.52    1234
15.54    1178
15.56    1222
15.58    1222
15.6     1234
15.62    1305
15.64    1327
15.66    1320
15.68    1253
15.7     1253
15.72    1299
15.74    1231
15.76    1252
15.78    1277
15.8     1349
15.82    1364
15.84    1411
15.86    1464
15.88    1484
15.9     1498
15.92    1524
15.94    1534
15.96    1612
15.98    1705
16.0     1776
16.02    1841
16.04    1995
16.06    2141
16.08    2182
16.1     2306
16.12    2550
16.14    2754
16.16    2932
16.18    3186
16.2     3508
16.22    3810
16.24    4263
16.26    4756
16.28    5312
16.3     6213
16.32    7344
16.34    8543
16.36    10025
16.38    12025
16.4     14586
16.42    17749
16.44    21917
16.46    27020
16.48    33067
16.5     39928
16.52    46463
16.54    50892
16.56    52221
16.58    50254
16.6     45095
16.62    37616
16.64    29028
16.66    20717
16.68    14073
16.7     9678
16.72    7071
16.74    5375
16.76    4323
16.78    3772
16.8     3392
16.82    3070
16.84    2673
16.86    2393
16.88    2313
16.9     2242
16.92    2116
16.94    1952
16.96    1898
16.98    1873
17.0     1903
17.02    1809
17.04    1713
17.06    1655
17.08    1615
17.1     1530
17.12    1476
17.14    1458
17.16    1489
17.18    1448
17.2     1474
17.22    1464
17.24    1513
17.26    1518
17.28    1390
17.3     1340
17.32    1366
17.34    1303
17.36    1295
17.38    1271
17.4     1245
17.42    1269
17.44    1297
17.46    1270
17.48    1191
17.5     1234
17.52    1206
17.54    1162
17.56    1198
17.58    1186
17.6     1176
17.62    1153
17.64    1196
17.66    1150
17.68    1160
17.7     1172
17.72    1176
17.74    1177
17.76    1149
17.78    1122
17.8     1140
17.82    1126
17.84    1091
17.86    1036
17.88    1007
17.9     1014
17.92    1019
17.94    1018
17.96    1042
17.98    1093
18.0     1105
18.02    1073
18.04    997
18.06    984
18.08    945
18.1     966
18.12    941
18.14    1012
18.16    1077
18.18    1143
18.2     1130
18.22    1127
18.24    1135
18.26    1038
18.28    947
18.3     940
18.32    908
18.34    932
18.36    896
18.38    930
18.4     937
18.42    923
18.44    906
18.46    849
18.48    851
18.5     930
18.52    968
18.54    1021
18.56    978
18.58    934
18.6     929
18.62    910
18.64    906
18.66    856
18.68    863
18.7     899
18.72    947
18.74    962
18.76    957
18.78    946
18.8     1014
18.82    971
18.84    949
18.86    925
18.88    964
18.9     901
18.92    877
18.94    869
18.96    924
18.98    940
19.0     956
19.02    965
19.04    1054
19.06    1089
19.08    1060
19.1     969
19.12    951
19.14    986
19.16    1018
19.18    994
19.2     964
19.22    957
19.24    922
19.26    949
19.28    917
19.3     869
19.32    793
19.34    802
19.36    833
19.38    840
19.4     816
19.42    793
19.44    800
19.46    887
19.48    883
19.5     897
19.52    827
19.54    816
19.56    829
19.58    894
19.6     934
19.62    924
19.64    885
19.66    858
19.68    873
19.7     944
19.72    867
19.74    832
19.76    797
19.78    758
19.8     780
19.82    752
19.84    665
19.86    672
19.88    715
19.9     755
19.92    770
19.94    805
19.96    731
19.98    667
20.0     720
20.02    784
20.04    790
20.06    835
20.08    854
20.1     865
20.12    909
20.14    885
20.16    784
20.18    737
20.2     710
20.22    744
20.24    739
20.26    749
20.28    776
20.3     829
20.32    841
20.34    799
20.36    778
20.38    834
20.4     862
20.42    869
20.44    889
20.46    956
20.48    1032
20.5     1033
20.52    942
20.54    840
20.56    797
20.58    800
20.6     680
20.62    617
20.64    662
20.66    750
20.68    816
20.7     759
20.72    704
20.74    727
20.76    733
20.78    739
20.8     711
20.82    722
20.84    728
20.86    775
20.88    834
20.9     835
20.92    783
20.94    778
20.96    771
20.98    797
21.0     830
21.02    768
21.04    711
21.06    722
21.08    686
21.1     741
21.12    681
21.14    650
21.16    660
21.18    627
21.2     690
21.22    678
21.24    699
21.26    665
21.28    576
21.3     665
21.32    714
21.34    774
21.36    808
21.38    803
21.4     852
21.42    762
21.44    760
21.46    681
21.48    578
21.5     560
21.52    611
21.54    673
21.56    698
21.58    731
21.6     819
21.62    808
21.64    853
21.66    821
21.68    788
21.7     753
21.72    745
21.74    717
21.76    681
21.78    693
21.8     709
21.82    699
21.84    673
21.86    633
21.88    653
21.9     615
21.92    612
21.94    658
21.96    755
21.98    746
22.0     668
22.02    657
22.04    613
22.06    653
22.08    658
22.1     668
22.12    684
22.14    692
22.16    712
22.18    647
22.2     585
22.22    550
22.24    522
22.26    598
22.28    624
22.3     714
22.32    744
22.34    738
22.36    751
22.38    751
22.4     715
22.42    653
22.44    592
22.46    590
22.48    569
22.5     530
22.52    507
22.54    556
22.56    610
22.58    662
22.6     678
22.62    708
22.64    714
22.66    706
22.68    673
22.7     589
22.72    557
22.74    586
22.76    584
22.78    601
22.8     632
22.82    640
22.84    606
22.86    573
22.88    628
22.9     600
22.92    564
22.94    530
22.96    555
22.98    576
23.0     615
23.02    516
23.04    470
23.06    477
23.08    616
23.1     607
23.12    549
23.14    509
23.16    531
23.18    542
23.2     562
23.22    516
23.24    557
23.26    619
23.28    712
23.3     686
23.32    614
23.34    618
23.36    618
23.38    684
23.4     678
23.42    674
23.44    590
23.46    608
23.48    583
23.5     571
23.52    535
23.54    624
23.56    612
23.58    630
23.6     536
23.62    476
23.64    401
23.66    487
23.68    543
23.7     597
23.72    544
23.74    570
23.76    483
23.78    443
23.8     389
23.82    468
23.84    551
23.86    680
23.88    724
23.9     653
23.92    540
23.94    499
23.96    507
23.98    533
24.0     585
24.02    621
24.04    706
24.06    751
24.08    728
24.1     622
24.12    542
24.14    569
24.16    629
24.18    601
24.2     565
24.22    466
24.24    507
24.26    538
24.28    590
24.3     595
24.32    589
24.34    571
24.36    534
24.38    554
24.4     574
24.42    599
24.44    583
24.46    588
24.48    574
24.5     569
24.52    500
24.54    487
24.56    489
24.58    586
24.6     638
24.62    662
24.64    633
24.66    616
24.68    622
24.7     612
24.72    576
24.74    595
24.76    538
24.78    583
24.8     534
24.82    531
24.84    519
24.86    537
24.88    520
24.9     459
24.92    377
24.94    451
24.96    484
24.98    564
25.0     538
25.02    539
25.04    530
25.06    529
25.08    474
25.1     430
25.12    378
25.14    439
25.16    385
25.18    443
25.2     444
25.22    425
25.24    494
25.26    532
25.28    618
25.3     632
25.32    612
25.34    527
25.36    463
25.38    495
25.4     494
25.42    452
25.44    439
25.46    463
25.48    545
25.5     580
25.52    573
25.54    473
25.56    501
25.58    523
25.6     534
25.62    460
25.64    410
25.66    382
25.68    370
25.7     394
25.72    416
25.74    450
25.76    578
25.78    638
25.8     673
25.82    606
25.84    587
25.86    493
25.88    489
25.9     481
25.92    472
25.94    477
25.96    519
25.98    496
26.0     478
26.02    462
26.04    500
26.06    464
26.08    548
26.1     486
26.12    485
26.14    437
26.16    425
26.18    391
26.2     376
26.22    398
26.24    435
26.26    457
26.28    536
26.3     486
26.32    522
26.34    469
26.36    469
26.38    460
26.4     416
26.42    422
26.44    471
26.46    516
26.48    499
26.5     495
26.52    436
26.54    424
26.56    426
26.58    442
26.6     483
26.62    501
26.64    520
26.66    519
26.68    473
26.7     481
26.72    483
26.74    496
26.76    506
26.78    467
26.8     483
26.82    435
26.84    450
26.86    440
26.88    453
26.9     440
26.92    494
26.94    511
26.96    511
26.98    440
27.0     448
27.02    415
27.04    436
27.06    447
27.08    423
27.1     368
27.12    388
27.14    438
27.16    403
27.18    379
27.2     396
27.22    401
27.24    453
27.26    497
27.28    523
27.3     511
27.32    496
27.34    489
27.36    444
27.38    441
27.4     455
27.42    435
27.44    425
27.46    394
27.48    366
27.5     399
27.52    357
27.54    379
27.56    321
27.58    334
27.6     353
27.62    351
27.64    364
27.66    311
27.68    292
27.7     415
27.72    378
27.74    400
27.76    363
27.78    405
27.8     437
27.82    407
27.84    427
27.86    384
27.88    398
27.9     440
27.92    397
27.94    443
27.96    488
27.98    567
28.0     579
28.02    464
28.04    451
28.06    376
28.08    344
28.1     355
28.12    362
28.14    422
28.16    468
28.18    498
28.2     453
28.22    437
28.24    446
28.26    473
28.28    502
28.3     491
28.32    447
28.34    406
28.36    388
28.38    317
28.4     327
28.42    401
28.44    481
28.46    607
28.48    613
28.5     558
28.52    495
28.54    487
28.56    466
28.58    446
28.6     465
28.62    438
28.64    432
28.66    393
28.68    356
28.7     315
28.72    290
28.74    319
28.76    352
28.78    390
28.8     414
28.82    405
28.84    370
28.86    388
28.88    452
28.9     449
28.92    470
28.94    458
28.96    468
28.98    435
29.0     388
29.02    367
29.04    336
29.06    347
29.08    372
29.1     348
29.12    401
29.14    402
29.16    452
29.18    445
29.2     432
29.22    466
29.24    420
29.26    390
29.28    383
29.3     377
29.32    433
29.34    432
29.36    419
29.38    419
29.4     421
29.42    460
29.44    451
29.46    444
29.48    434
29.5     365
29.52    332
29.54    286
29.56    284
29.58    376
29.6     446
29.62    496
29.64    500
29.66    447
29.68    411
29.7     332
29.72    336
29.74    352
29.76    445
29.78    564
29.8     546
29.82    473
29.84    415
29.86    367
29.88    371
29.9     426
29.92    474
29.94    512
29.96    614
29.98    610
30.0     543
30.02    482
30.04    421
30.06    405
30.08    465
30.1     574
30.12    609
30.14    646
30.16    683
30.18    591
30.2     531
30.22    403
30.24    337
30.26    366
30.28    401
30.3     471
30.32    454
30.34    448
30.36    452
30.38    385
30.4     342
30.42    306
30.44    333
30.46    411
30.48    475
30.5     509
30.52    455
30.54    436
30.56    356
30.58    274
30.6     205
30.62    153
30.64    204
30.66    345
30.68    435
30.7     491
30.72    462
30.74    444
30.76    436
30.78    426
30.8     470
30.82    479
30.84    538
30.86    592
30.88    508
30.9     384
30.92    251
30.94    215
30.96    296
30.98    367
31.0     503
31.02    577
31.04    608
31.06    629
31.08    542
31.1     441
31.12    383
31.14    339
31.16    345
31.18    386
31.2     383
31.22    409
31.24    392
31.26    354
31.28    389
31.3     396
31.32    383
31.34    353
31.36    283
31.38    302
31.4     331
31.42    384
31.44    441
31.46    405
31.48    454
31.5     477
31.52    429
31.54    365
31.56    323
31.58    331
31.6     379
31.62    430
31.64    443
31.66    481
31.68    518
31.7     524
31.72    509
31.74    457
31.76    426
31.78    347
31.8     386
31.82    455
31.84    470
31.86    520
31.88    478
31.9     384
31.92    316
31.94    246
31.96    224
31.98    245
32.0     342
32.02    380
32.04    375
32.06    402
32.08    406
32.1     441
32.12    491
32.14    555
32.16    591
32.18    580
32.2     496
32.22    404
32.24    306
32.26    344
32.28    349
32.3     404
32.32    402
32.34    422
32.36    416
32.38    409
32.4     383
32.42    418
32.44    456
32.46    459
32.48    454
32.5     513
32.52    492
32.54    572
32.56    563
32.58    526
32.6     469
32.62    464
32.64    456
32.66    421
32.68    503
32.7     566
32.72    639
32.74    704
32.76    687
32.78    704
32.8     670
32.82    643
32.84    650
32.86    646
32.88    618
32.9     584
32.92    650
32.94    646
32.96    615
32.98    634
33.0     593
33.02    552
33.04    625
33.06    596
33.08    583
33.1     654
33.12    767
33.14    858
33.16    889
33.18    948
33.2     1033
33.22    1085
33.24    1193
33.26    1201
33.28    1305
33.3     1436
33.32    1607
33.34    1889
33.36    2193
33.38    2652
33.4     3392
33.42    4245
33.44    5408
33.46    6767
33.48    8257
33.5     9678
33.52    10767
33.54    11266
33.56    11147
33.58    10462
33.6     9243
33.62    7719
33.64    6191
33.66    4757
33.68    3598
33.7     2812
33.72    2245
33.74    1809
33.76    1594
33.78    1366
33.8     1120
33.82    1031
33.84    873
33.86    735
33.88    677
33.9     702
33.92    720
33.94    797
33.96    847
33.98    817
34.0     728
34.02    651
34.04    561
34.06    512
34.08    515
34.1     537
34.12    525
34.14    597
34.16    639
34.18    617
34.2     573
34.22    558
34.24    590
34.26    614
34.28    633
34.3     631
34.32    594
34.34    590
34.36    592
34.38    600
34.4     659
34.42    657
34.44    661
34.46    678
34.48    673
34.5     692
34.52    693
34.54    710
34.56    711
34.58    691
34.6     684
34.62    568
34.64    540
34.66    516
34.68    551
34.7     622
34.72    648
34.74    692
34.76    778
34.78    708
34.8     739
34.82    775
34.84    809
34.86    867
34.88    1049
34.9     1173
34.92    1276
34.94    1443
34.96    1719
34.98    1975
35.0     2592
35.02    3548
35.04    4762
35.06    6438
35.08    8322
35.1     9939
35.12    11051
35.14    11487
35.16    11100
35.18    9946
35.2     8392
35.22    6650
35.24    5032
35.26    3864
35.28    2986
35.3     2356
35.32    1846
35.34    1462
35.36    1117
35.38    899
35.4     793
35.42    801
35.44    898
35.46    1019
35.48    1056
35.5     1025
35.52    875
35.54    757
35.56    618
35.58    516
35.6     490
35.62    571
35.64    556
35.66    586
35.68    631
35.7     583
35.72    609
35.74    694
35.76    667
35.78    623
35.8     658
35.82    698
35.84    610
35.86    605
35.88    677
35.9     666
35.92    712
35.94    743
35.96    718
35.98    682
36.0     637
36.02    596
36.04    593
36.06    613
36.08    770
36.1     877
36.12    977
36.14    1090
36.16    1165
36.18    1235
36.2     1274
36.22    1407
36.24    1587
36.26    1861
36.28    2313
36.3     2915
36.32    3735
36.34    4727
36.36    6137
36.38    8088
36.4     10581
36.42    13733
36.44    17117
36.46    20214
36.48    22416
36.5     23299
36.52    22643
36.54    20429
36.56    17358
36.58    13832
36.6     10407
36.62    7737
36.64    5802
36.66    4370
36.68    3431
36.7     2796
36.72    2261
36.74    1815
36.76    1563
36.78    1342
36.8     1168
36.82    1122
36.84    1058
36.86    952
36.88    870
36.9     835
36.92    750
36.94    724
36.96    744
36.98    728
37.0     740
37.02    761
37.04    709
37.06    684
37.08    617
37.1     584
37.12    601
37.14    657
37.16    700
37.18    693
37.2     684
37.22    709
37.24    668
37.26    640
37.28    640
37.3     631
37.32    709
37.34    804
37.36    866
37.38    892
37.4     913
37.42    911
37.44    833
37.46    684
37.48    639
37.5     472
37.52    396
37.54    423
37.56    462
37.58    532
37.6     639
37.62    691
37.64    732
37.66    692
37.68    732
37.7     580
37.72    453
37.74    418
37.76    381
37.78    357
37.8     399
37.82    488
37.84    535
37.86    554
37.88    608
37.9     553
37.92    487
37.94    420
37.96    404
37.98    348
38.0     355
38.02    436
38.04    431
38.06    470
38.08    521
38.1     598
38.12    569
38.14    510
38.16    470
38.18    401
38.2     342
38.22    362
38.24    349
38.26    409
38.28    437
38.3     480
38.32    430
38.34    378
38.36    316
38.38    273
38.4     241
38.42    299
38.44    391
38.46    468
38.48    451
38.5     393
38.52    383
38.54    332
38.56    319
38.58    315
38.6     386
38.62    486
38.64    597
38.66    555
38.68    521
38.7     392
38.72    392
38.74    337
38.76    381
38.78    402
38.8     481
38.82    501
38.84    495
38.86    414
38.88    387
38.9     243
38.92    266
38.94    230
38.96    273
38.98    245
39.0     319
39.02    404
39.04    430
39.06    461
39.08    505
39.1     496
39.12    452
39.14    406
39.16    397
39.18    313
39.2     359
39.22    464
39.24    442
39.26    521
39.28    537
39.3     559
39.32    496
39.34    491
39.36    431
39.38    367
39.4     373
39.42    358
39.44    357
39.46    464
39.48    517
39.5     601
39.52    615
39.54    546
39.56    440
39.58    388
39.6     307
39.62    238
39.64    302
39.66    360
39.68    410
39.7     483
39.72    497
39.74    508
39.76    459
39.78    459
39.8     476
39.82    452
39.84    437
39.86    428
39.88    417
39.9     409
39.92    444
39.94    535
39.96    547
39.98    648
40.0     739
40.02    699
40.04    716
40.06    732
40.08    643
40.1     571
40.12    584
40.14    583
40.16    598
40.18    674
40.2     758
40.22    769
40.24    835
40.26    872
40.28    837
40.3     802
40.32    755
40.34    709
40.36    706
40.38    712
40.4     746
40.42    826
40.44    915
40.46    984
40.48    963
40.5     948
40.52    887
40.54    835
40.56    778
40.58    749
40.6     724
40.62    807
40.64    842
40.66    865
40.68    931
40.7     955
40.72    975
40.74    983
40.76    1036
40.78    1025
40.8     1043
40.82    1046
40.84    1033
40.86    1034
40.88    1083
40.9     1079
40.92    1177
40.94    1228
40.96    1376
40.98    1444
41.0     1555
41.02    1614
41.04    1701
41.06    1710
41.08    1812
41.1     1895
41.12    2079
41.14    2267
41.16    2557
41.18    2855
41.2     3209
41.22    3609
41.24    4101
41.26    4668
41.28    5464
41.3     6416
41.32    7671
41.34    9308
41.36    11436
41.38    14277
41.4     18014
41.42    22946
41.44    29547
41.46    38006
41.48    47825
41.5     58336
41.52    67820
41.54    74662
41.56    77520
41.58    75897
41.6     70111
41.62    61141
41.64    50650
41.66    40224
41.68    30897
41.7     23608
41.72    17960
41.74    13730
41.76    10616
41.78    8353
41.8     6903
41.82    5801
41.84    5089
41.86    4611
41.88    4154
41.9     3698
41.92    3212
41.94    2779
41.96    2395
41.98    2102
42.0     1933
42.02    1818
42.04    1800
42.06    1819
42.08    1783
42.1     1656
42.12    1572
42.14    1469
42.16    1344
42.18    1249
42.2     1196
42.22    1224
42.24    1236
42.26    1257
42.28    1300
42.3     1248
42.32    1196
42.34    1132
42.36    979
42.38    833
42.4     726
42.42    740
42.44    787
42.46    860
42.48    958
42.5     1049
42.52    1088
42.54    1067
42.56    945
42.58    789
42.6     642
42.62    562
42.64    485
42.66    453
42.68    521
42.7     654
42.72    743
42.74    818
42.76    867
42.78    912
42.8     859
42.82    803
42.84    725
42.86    675
42.88    687
42.9     611
42.92    604
42.94    632
42.96    689
42.98    713
43.0     664
43.02    652
43.04    613
43.06    626
43.08    587
43.1     500
43.12    515
43.14    578
43.16    621
43.18    565
43.2     591
43.22    557
43.24    539
43.26    471
43.28    421
43.3     422
43.32    458
43.34    523
43.36    586
43.38    625
43.4     616
43.42    556
43.44    571
43.46    476
43.48    432
43.5     434
43.52    459
43.54    455
43.56    471
43.58    513
43.6     474
43.62    472
43.64    497
43.66    502
43.68    510
43.7     579
43.72    599
43.74    561
43.76    601
43.78    588
43.8     580
43.82    491
43.84    475
43.86    482
43.88    439
43.9     465
43.92    509
43.94    569
43.96    643
43.98    605
44.0     580
44.02    530
44.04    503
44.06    358
44.08    200
44.1     224
44.12    310
44.14    387
44.16    409
44.18    495
44.2     608
44.22    665
44.24    601
44.26    497
44.28    391
44.3     383
44.32    359
44.34    372
44.36    396
44.38    528
44.4     684
44.42    748
44.44    718
44.46    665
44.48    521
44.5     426
44.52    340
44.54    320
44.56    339
44.58    393
44.6     528
44.62    590
44.64    649
44.66    605
44.68    515
44.7     477
44.72    430
44.74    347
44.76    269
44.78    241
44.8     324
44.82    417
44.84    591
44.86    716
44.88    824
44.9     935
44.92    1019
44.94    1058
44.96    1054
44.98    1127
45.0     1243
45.02    1426
45.04    1602
45.06    1706
45.08    1718
45.1     1688
45.12    1574
45.14    1435
45.16    1193
45.18    984
45.2     770
45.22    703
45.24    672
45.26    577
45.28    588
45.3     561
45.32    562
45.34    583
45.36    482
45.38    459
45.4     361
45.42    419
45.44    425
45.46    405
45.48    476
45.5     502
45.52    640
45.54    644
45.56    638
45.58    648
45.6     541
45.62    504
45.64    344
45.66    265
45.68    223
45.7     208
45.72    321
45.74    380
45.76    575
45.78    680
45.8     759
45.82    778
45.84    636
45.86    477
45.88    295
45.9     135
45.92    38
45.94    58
45.96    170
45.98    280
46.0     398
46.02    536
46.04    610
46.06    635
46.08    630
46.1     553
46.12    506
46.14    428
46.16    354
46.18    273
46.2     274
46.22    323
46.24    343
46.26    403
46.28    439
46.3     445
46.32    459
46.34    364
46.36    360
46.38    332
46.4     370
46.42    373
46.44    411
46.46    467
46.48    512
46.5     554
46.52    523
46.54    553
46.56    546
46.58    497
46.6     517
46.62    467
46.64    499
46.66    443
46.68    449
46.7     421
46.72    364
46.74    414
46.76    385
46.78    349
46.8     349
46.82    307
46.84    289
46.86    264
46.88    277
46.9     313
46.92    366
46.94    461
46.96    548
46.98    504
47.0     489
47.02    419
47.04    297
47.06    234
47.08    146
47.1     211
47.12    235
47.14    294
47.16    411
47.18    422
47.2     519
47.22    486
47.24    419
47.26    383
47.28    326
47.3     342
47.32    269
47.34    317
47.36    390
47.38    355
47.4     380
47.42    331
47.44    331
47.46    358
47.48    274
47.5     305
47.52    327
47.54    427
47.56    460
47.58    431
47.6     485
47.62    532
47.64    516
47.66    489
47.68    427
47.7     432
47.72    348
47.74    279
47.76    259
47.78    303
47.8     320
47.82    396
47.84    446
47.86    491
47.88    553
47.9     535
47.92    460
47.94    436
47.96    418
47.98    441
48.0     454
48.02    504
48.04    560
48.06    551
48.08    553
48.1     464
48.12    370
48.14    321
48.16    262
48.18    242
48.2     294
48.22    345
48.24    416
48.26    449
48.28    464
48.3     407
48.32    333
48.34    297
48.36    257
48.38    231
48.4     248
48.42    316
48.44    359
48.46    443
48.48    482
48.5     529
48.52    519
48.54    544
48.56    510
48.58    474
48.6     425
48.62    382
48.64    323
48.66    319
48.68    259
48.7     333
48.72    356
48.74    429
48.76    487
48.78    486
48.8     522
48.82    540
48.84    521
48.86    507
48.88    455
48.9     451
48.92    462
48.94    471
48.96    400
48.98    304
49.0     272
49.02    234
49.04    174
49.06    135
49.08    135
49.1     213
49.12    309
49.14    358
49.16    358
49.18    381
49.2     361
49.22    275
49.24    177
49.26    156
49.28    157
49.3     235
49.32    247
49.34    257
49.36    284
49.38    308
49.4     292
49.42    288
49.44    228
49.46    234
49.48    270
49.5     327
49.52    311
49.54    289
49.56    324
49.58    384
49.6     448
49.62    422
49.64    362
49.66    361
49.68    392
49.7     419
49.72    389
49.74    397
49.76    485
49.78    527
49.8     541
49.82    452
49.84    444
49.86    400
49.88    338
49.9     371
49.92    351
49.94    343
49.96    321
49.98    320
50.0     325
50.02    304
50.04    318
50.06    354
50.08    395
50.1     462
50.12    473
50.14    449
50.16    421
50.18    402
50.2     344
50.22    237
50.24    157
50.26    187
50.28    212
50.3     257
50.32    323
50.34    401
50.36    486
50.38    474
50.4     452
50.42    361
50.44    267
50.46    248
50.48    246
50.5     262
50.52    248
50.54    283
50.56    307
50.58    292
50.6     369
50.62    363
50.64    349
50.66    382
50.68    414
50.7     422
50.72    375
50.74    338
50.76    313
50.78    325
50.8     372
50.82    308
50.84    265
50.86    303
50.88    267
50.9     263
50.92    285
50.94    301
50.96    380
50.98    422
51.0     398
51.02    350
51.04    314
51.06    307
51.08    249
51.1     227
51.12    289
51.14    307
51.16    336
51.18    317
51.2     337
51.22    375
51.24    364
51.26    360
51.28    372
51.3     377
51.32    528
51.34    523
51.36    507
51.38    462
51.4     445
51.42    456
51.44    370
51.46    334
51.48    273
51.5     244
51.52    382
51.54    370
51.56    352
51.58    386
51.6     383
51.62    465
51.64    440
51.66    424
51.68    377
51.7     364
51.72    353
51.74    320
51.76    299
51.78    356
51.8     360
51.82    425
51.84    430
51.86    424
51.88    406
51.9     365
51.92    309
51.94    306
51.96    267
51.98    334
52.0     387
52.02    445
52.04    496
52.06    459
52.08    397
52.1     415
52.12    407
52.14    434
52.16    359
52.18    376
52.2     443
52.22    495
52.24    501
52.26    473
52.28    423
52.3     487
52.32    436
52.34    426
52.36    301
52.38    292
52.4     329
52.42    343
52.44    264
52.46    280
52.48    374
52.5     486
52.52    470
52.54    476
52.56    465
52.58    563
52.6     564
52.62    491
52.64    356
52.66    326
52.68    396
52.7     387
52.72    331
52.74    342
52.76    358
52.78    422
52.8     440
52.82    400
52.84    440
52.86    487
52.88    536
52.9     599
52.92    615
52.94    623
52.96    631
52.98    629
53.0     616
53.02    601
53.04    647
53.06    630
53.08    637
53.1     704
53.12    768
53.14    879
53.16    1019
53.18    1103
53.2     1207
53.22    1369
53.24    1521
53.26    1669
53.28    1852
53.3     2176
53.32    2557
53.34    3083
53.36    3692
53.38    4325
53.4     4985
53.42    5626
53.44    6088
53.46    6347
53.48    6333
53.5     6118
53.52    5639
53.54    5143
53.56    4522
53.58    3851
53.6     3246
53.62    2749
53.64    2349
53.66    1970
53.68    1607
53.7     1346
53.72    1145
53.74    1044
53.76    966
53.78    828
53.8     809
53.82    792
53.84    812
53.86    741
53.88    678
53.9     618
53.92    582
53.94    538
53.96    534
53.98    482
54.0     544
54.02    536
54.04    543
54.06    507
54.08    459
54.1     412
54.12    426
54.14    328
54.16    333
54.18    320
54.2     336
54.22    291
54.24    214
54.26    184
54.28    159
54.3     214
54.32    257
54.34    252
54.36    329
54.38    408
54.4     495
54.42    493
54.44    421
54.46    412
54.48    405
54.5     400
54.52    370
54.54    367
54.56    391
54.58    473
54.6     445
54.62    364
54.64    306
54.66    251
54.68    245
54.7     218
54.72    233
54.74    311
54.76    419
54.78    470
54.8     434
54.82    402
54.84    426
54.86    406
54.88    332
54.9     274
54.92    275
54.94    353
54.96    409
54.98    369
55.0     277
55.02    266
55.04    274
55.06    243
55.08    158
55.1     137
55.12    193
55.14    297
55.16    352
55.18    324
55.2     321
55.22    388
55.24    475
55.26    442
55.28    398
55.3     387
55.32    430
55.34    432
55.36    430
55.38    381
55.4     392
55.42    449
55.44    458
55.46    382
55.48    342
55.5     301
55.52    316
55.54    293
55.56    301
55.58    325
55.6     427
55.62    485
55.64    490
55.66    521
55.68    424
55.7     408
55.72    399
55.74    389
55.76    365
55.78    370
55.8     439
55.82    398
55.84    346
55.86    277
55.88    189
55.9     206
55.92    220
55.94    262
55.96    271
55.98    303
56.0     361
56.02    410
56.04    385
56.06    399
56.08    429
56.1     439
56.12    479
56.14    520
56.16    481
56.18    437
56.2     419
56.22    447
56.24    336
56.26    330
56.28    335
56.3     358
56.32    391
56.34    439
56.36    417
56.38    449
56.4     442
56.42    460
56.44    389
56.46    395
56.48    334
56.5     309
56.52    326
56.54    350
56.56    332
56.58    359
56.6     344
56.62    356
56.64    327
56.66    314
56.68    265
56.7     310
56.72    388
56.74    456
56.76    456
56.78    541
56.8     537
56.82    474
56.84    443
56.86    386
56.88    305
56.9     319
56.92    321
56.94    311
56.96    296
56.98    316
57.0     305
57.02    331
57.04    388
57.06    378
57.08    388
57.1     508
57.12    536
57.14    495
57.16    457
57.18    424
57.2     419
57.22    468
57.24    474
57.26    415
57.28    425
57.3     479
57.32    443
57.34    405
57.36    399
57.38    434
57.4     546
57.42    650
57.44    678
57.46    639
57.48    641
57.5     645
57.52    583
57.54    570
57.56    495
57.58    471
57.6     524
57.62    551
57.64    555
57.66    560
57.68    571
57.7     661
57.72    777
57.74    867
57.76    871
57.78    941
57.8     1009
57.82    1089
57.84    1214
57.86    1272
57.88    1276
57.9     1416
57.92    1566
57.94    1717
57.96    1834
57.98    2000
58.0     2223
58.02    2554
58.04    3023
58.06    3434
58.08    3961
58.1     4663
58.12    5525
58.14    6538
58.16    7665
58.18    8964
58.2     10386
58.22    11849
58.24    13093
58.26    13910
58.28    14324
58.3     14222
58.32    13598
58.34    12461
58.36    11102
58.38    9568
58.4     8132
58.42    6893
58.44    5758
58.46    4785
58.48    4064
58.5     3573
58.52    3059
58.54    2730
58.56    2441
58.58    2106
58.6     1890
58.62    1723
58.64    1554
58.66    1326
58.68    1241
58.7     1132
58.72    1013
58.74    1038
58.76    953
58.78    888
58.8     844
58.82    825
58.84    777
58.86    741
58.88    789
58.9     772
58.92    767
58.94    694
58.96    624
58.98    580
59.0     528
59.02    480
59.04    438
59.06    440
59.08    484
59.1     524
59.12    483
59.14    466
59.16    477
59.18    501
59.2     544
59.22    565
59.24    563
59.26    476
59.28    454
59.3     424
59.32    403
59.34    399
59.36    369
59.38    376
59.4     381
59.42    458
59.44    491
59.46    460
59.48    484
59.5     540
59.52    561
59.54    523
59.56    532
59.58    523
59.6     498
59.62    546
59.64    479
59.66    341
59.68    254
59.7     261
59.72    229
59.74    193
59.76    216
59.78    248
59.8     338
59.82    486
59.84    493
59.86    460
59.88    450
59.9     494
59.92    488
59.94    430
59.96    382
59.98    287
60.0     214
60.02    225
60.04    170
60.06    226
60.08    223
60.1     310
60.12    386
60.14    457
60.16    528
60.18    505
60.2     464
60.22    462
60.24    453
60.26    471
60.28    382
60.3     371
60.32    305
60.34    298
60.36    294
60.38    252
60.4     228
60.42    240
60.44    300
60.46    297
60.48    292
60.5     349
60.52    363
60.54    405
60.56    431
60.58    385
60.6     355
60.62    356
60.64    399
60.66    361
60.68    372
60.7     384
60.72    416
60.74    418
60.76    423
60.78    339
60.8     302
60.82    274
60.84    296
60.86    305
60.88    289
60.9     283
60.92    381
60.94    395
60.96    397
60.98    367
61.0     384
61.02    338
61.04    387
61.06    401
61.08    366
61.1     373
61.12    456
61.14    459
61.16    530
61.18    549
61.2     557
61.22    507
61.24    540
61.26    515
61.28    424
61.3     330
61.32    244
61.34    187
61.36    235
61.38    304
61.4     401
61.42    449
61.44    578
61.46    684
61.48    688
61.5     680
61.52    620
61.54    532
61.56    431
61.58    396
61.6     398
61.62    364
61.64    384
61.66    461
61.68    509
61.7     582
61.72    718
61.74    860
61.76    924
61.78    1061
61.8     1196
61.82    1318
61.84    1378
61.86    1452
61.88    1504
61.9     1572
61.92    1761
61.94    2081
61.96    2419
61.98    2939
62.0     3643
62.02    4618
62.04    5752
62.06    7098
62.08    8754
62.1     10506
62.12    12217
62.14    13842
62.16    15081
62.18    15715
62.2     15726
62.22    15057
62.24    13742
62.26    12091
62.28    10404
62.3     8768
62.32    7189
62.34    5973
62.36    5012
62.38    4237
62.4     3625
62.42    3105
62.44    2669
62.46    2346
62.48    2083
62.5     1903
62.52    1673
62.54    1587
62.56    1427
62.58    1312
62.6     1144
62.62    1019
62.64    866
62.66    716
62.68    622
62.7     550
62.72    552
62.74    577
62.76    535
62.78    560
62.8     567
62.82    624
62.84    597
62.86    620
62.88    653
62.9     623
62.92    604
62.94    563
62.96    546
62.98    541
63.0     483
63.02    440
63.04    370
63.06    354
63.08    346
63.1     368
63.12    350
63.14    384
63.16    443
63.18    426
63.2     399
63.22    343
63.24    380
63.26    376
63.28    409
63.3     450
63.32    409
63.34    390
63.36    350
63.38    287
63.4     320
63.42    275
63.44    326
63.46    303
63.48    313
63.5     300
63.52    283
63.54    277
63.56    267
63.58    344
63.6     428
63.62    431
63.64    415
63.66    382
63.68    347
63.7     327
63.72    330
63.74    332
63.76    304
63.78    353
63.8     371
63.82    415
63.84    412
63.86    404
63.88    453
63.9     439
63.92    379
63.94    396
63.96    328
63.98    318
64.0     340
64.02    397
64.04    416
64.06    366
64.08    423
64.1     389
64.12    351
64.14    393
64.16    360
64.18    358
64.2     380
64.22    442
64.24    475
64.26    479
64.28    583
64.3     591
64.32    558
64.34    516
64.36    507
64.38    425
64.4     370
64.42    349
64.44    339
64.46    388
64.48    461
64.5     510
64.52    587
64.54    618
64.56    743
64.58    780
64.6     881
64.62    999
64.64    1166
64.66    1324
64.68    1536
64.7     1807
64.72    2095
64.74    2386
64.76    2801
64.78    3190
64.8     3547
64.82    3846
64.84    4117
64.86    4171
64.88    4116
64.9     3916
64.92    3624
64.94    3185
64.96    2805
64.98    2399
65.0     2012
65.02    1680
65.04    1496
65.06    1284
65.08    1091
65.1     994
65.12    941
65.14    807
65.16    811
65.18    764
65.2     761
65.22    752
65.24    781
65.26    738
65.28    667
65.3     632
65.32    604
65.34    515
65.36    485
65.38    412
65.4     371
65.42    349
65.44    348
65.46    340
65.48    309
65.5     270
65.52    287
65.54    267
65.56    288
65.58    279
65.6     266
65.62    282
65.64    270
65.66    261
65.68    248
65.7     188
65.72    176
65.74    164
65.76    210
65.78    296
65.8     296
65.82    313
65.84    232
65.86    209
65.88    233
65.9     210
65.92    251
65.94    221
65.96    267
65.98    319
66.0     252
66.02    326
66.04    325
66.06    316
66.08    300
66.1     281
66.12    306
66.14    197
66.16    151
66.18    212
66.2     191
66.22    305
66.24    380
66.26    397
66.28    374
66.3     377
66.32    387
66.34    377
66.36    323
66.38    325
66.4     246
66.42    271
66.44    338
66.46    306
66.48    260
66.5     261
66.52    237
66.54    295
66.56    239
66.58    232
66.6     257
66.62    321
66.64    346
66.66    336
66.68    347
66.7     356
66.72    311
66.74    304
66.76    336
66.78    290
66.8     263
66.82    290
66.84    309
66.86    314
66.88    288
66.9     294
66.92    299
66.94    283
66.96    295
66.98    294
67.0     290
67.02    290
67.04    285
67.06    245
67.08    236
67.1     248
67.12    219
67.14    223
67.16    260
67.18    292
67.2     295
67.22    267
67.24    246
67.26    266
67.28    286
67.3     323
67.32    333
67.34    348
67.36    406
67.38    389
67.4     458
67.42    417
67.44    366
67.46    338
67.48    257
67.5     209
67.52    145
67.54    92
67.56    132
67.58    156
67.6     191
67.62    252
67.64    282
67.66    301
67.68    286
67.7     304
67.72    364
67.74    368
67.76    384
67.78    415
67.8     381
67.82    374
67.84    343
67.86    361
67.88    377
67.9     376
67.92    392
67.94    321
67.96    329
67.98    302
68.0     265
68.02    216
68.04    223
68.06    238
68.08    245
68.1     223
68.12    267
68.14    275
68.16    313
68.18    377
68.2     479
68.22    482
68.24    557
68.26    534
68.28    553
68.3     510
68.32    524
68.34    519
68.36    455
68.38    446
68.4     443
68.42    374
68.44    376
68.46    257
68.48    278
68.5     254
68.52    304
68.54    381
68.56    414
68.58    476
68.6     581
68.62    686
68.64    777
68.66    825
68.68    920
68.7     1012
68.72    1078
68.74    1143
68.76    1216
68.78    1315
68.8     1404
68.82    1554
68.84    1719
68.86    1977
68.88    2267
68.9     2637
68.92    2937
68.94    3222
68.96    3473
68.98    3592
69.0     3532
69.02    3408
69.04    3199
69.06    2972
69.08    2645
69.1     2327
69.12    2043
69.14    1827
69.16    1625
69.18    1445
69.2     1295
69.22    1149
69.24    1034
69.26    910
69.28    792
69.3     747
69.32    727
69.34    674
69.36    637
69.38    634
69.4     584
69.42    538
69.44    442
69.46    409
69.48    393
69.5     394
69.52    345
69.54    303
69.56    275
69.58    315
69.6     342
69.62    403
69.64    447
69.66    535
69.68    537
69.7     555
69.72    550
69.74    566
69.76    568
69.78    593
69.8     565
69.82    482
69.84    468
69.86    418
69.88    400
69.9     418
69.92    420
69.94    416
69.96    410
69.98    338
70.0     347
70.02    270
70.04    272
70.06    298
70.08    357
70.1     382
70.12    415
70.14    369
70.16    408
70.18    467
70.2     518
70.22    492
70.24    564
70.26    628
70.28    665
70.3     690
70.32    676
70.34    616
70.36    661
70.38    693
70.4     751
70.42    903
70.44    1092
70.46    1321
70.48    1543
70.5     1714
70.52    1793
70.54    1840
70.56    1825
70.58    1802
70.6     1776
70.62    1629
70.64    1487
70.66    1416
70.68    1312
70.7     1158
70.72    1126
70.74    1038
70.76    948
70.78    865
70.8     768
70.82    642
70.84    585
70.86    500
70.88    405
70.9     301
70.92    309
70.94    288
70.96    319
70.98    314
71.0     361
71.02    397
71.04    479
71.06    516
71.08    499
71.1     482
71.12    514
71.14    542
71.16    501
71.18    442
71.2     385
71.22    326
71.24    248
71.26    232
71.28    188
71.3     193
71.32    264
71.34    309
71.36    357
71.38    422
71.4     437
71.42    448
71.44    404
71.46    432
71.48    355
71.5     345
71.52    410
71.54    419
71.56    502
71.58    507
71.6     476
71.62    404
71.64    331
71.66    273
71.68    237
71.7     297
71.72    333
71.74    361
71.76    401
71.78    389
71.8     367
71.82    323
71.84    346
71.86    359
71.88    400
71.9     437
71.92    427
71.94    362
71.96    313
71.98    272
72.0     262
72.02    272
72.04    304
72.06    360
72.08    449
72.1     592
72.12    694
72.14    742
72.16    827
72.18    820
72.2     837
72.22    890
72.24    917
72.26    970
72.28    1042
72.3     1143
72.32    1289
72.34    1423
72.36    1520
72.38    1664
72.4     1876
72.42    2168
72.44    2464
72.46    2835
72.48    3237
72.5     3609
72.52    3990
72.54    4206
72.56    4281
72.58    4326
72.6     4255
72.62    4095
72.64    3850
72.66    3600
72.68    3235
72.7     2874
72.72    2537
72.74    2219
72.76    1935
72.78    1713
72.8     1519
72.82    1342
72.84    1128
72.86    966
72.88    797
72.9     699
72.92    644
72.94    609
72.96    574
72.98    511
73.0     515
73.02    554
73.04    551
73.06    642
73.08    710
73.1     705
73.12    713
73.14    692
73.16    628
73.18    533
73.2     512
73.22    492
73.24    426
73.26    415
73.28    378
73.3     357
73.32    416
73.34    470
73.36    547
73.38    622
73.4     747
73.42    814
73.44    854
73.46    906
73.48    1016
73.5     1046
73.52    997
73.54    940
73.56    906
73.58    851
73.6     795
73.62    736
73.64    739
73.66    693
73.68    707
73.7     599
73.72    494
73.74    449
73.76    457
73.78    422
73.8     388
73.82    468
73.84    526
73.86    516
73.88    558
73.9     523
73.92    480
73.94    500
73.96    476
73.98    404
74.0     384
74.02    444
74.04    471
74.06    491
74.08    626
74.1     730
74.12    805
74.14    948
74.16    1020
74.18    1121
74.2     1205
74.22    1377
74.24    1496
74.26    1667
74.28    1919
74.3     2086
74.32    2190
74.34    2257
74.36    2159
74.38    2028
74.4     1826
74.42    1706
74.44    1533
74.46    1442
74.48    1378
74.5     1333
74.52    1308
74.54    1287
74.56    1162
74.58    1152
74.6     1204
74.62    1218
74.64    1174
74.66    1181
74.68    1235
74.7     1265
74.72    1332
74.74    1426
74.76    1508
74.78    1660
74.8     1810
74.82    1837
74.84    1799
74.86    1821
74.88    1815
74.9     1722
74.92    1711
74.94    1630
74.96    1524
74.98    1406
75.0     1276
75.02    1098
75.04    940
75.06    865
75.08    816
75.1     728
75.12    773
75.14    652
75.16    570
75.18    530
75.2     478
75.22    451
75.24    461
75.26    468
75.28    500
75.3     470
75.32    514
75.34    438
75.36    440
75.38    431
75.4     433
75.42    487
75.44    495
75.46    469
75.48    477
75.5     419
75.52    388
75.54    317
75.56    271
75.58    216
75.6     208
75.62    214
75.64    172
75.66    170
75.68    233
75.7     223
75.72    201
75.74    179
75.76    212
75.78    270
75.8     345
75.82    332
75.84    366
75.86    387
75.88    379
75.9     339
75.92    277
75.94    312
75.96    348
75.98    323
76.0     318
76.02    269
76.04    345
76.06    232
76.08    167
76.1     102
76.12    72
76.14    147
76.16    120
76.18    183
76.2     237
76.22    340
76.24    431
76.26    409
76.28    414
76.3     425
76.32    435
76.34    399
76.36    299
76.38    328
76.4     263
76.42    259
76.44    208
76.46    207
76.48    194
76.5     232
76.52    231
76.54    204
76.56    169
76.58    176
76.6     199
76.62    208
76.64    268
76.66    361
76.68    366
76.7     368
76.72    412
76.74    384
76.76    310
76.78    231
76.8     185
76.82    123
76.84    184
76.86    226
76.88    227
76.9     273
76.92    328
76.94    345
76.96    324
76.98    301
77.0     365
77.02    430
77.04    557
77.06    630
77.08    685
77.1     693
77.12    648
77.14    643
77.16    580
77.18    570
77.2     660
77.22    690
77.24    726
77.26    721
77.28    792
77.3     840
77.32    935
77.34    1064
77.36    1192
77.38    1358
77.4     1589
77.42    1789
77.44    2047
77.46    2299
77.48    2669
77.5     3102
77.52    3563
77.54    3974
77.56    4341
77.58    4671
77.6     4940
77.62    5045
77.64    5056
77.66    4852
77.68    4550
77.7     4162
77.72    3654
77.74    3171
77.76    2722
77.78    2401
77.8     2139
77.82    1859
77.84    1726
77.86    1551
77.88    1377
77.9     1304
77.92    1160
77.94    1033
77.96    1013
77.98    1002
78.0     933
78.02    790
78.04    734
78.06    684
78.08    600
78.1     618
78.12    564
78.14    505
78.16    523
78.18    484
78.2     412
78.22    336
78.24    308
78.26    340
78.28    281
78.3     261
78.32    283
78.34    281
78.36    295
78.38    290
78.4     307
78.42    309
78.44    304
78.46    333
78.48    259
78.5     253
78.52    299
78.54    362
78.56    393
78.58    389
78.6     420
78.62    419
78.64    371
78.66    329
78.68    281
78.7     285
78.72    264
78.74    245
78.76    196
78.78    161
78.8     150
78.82    121
78.84    127
78.86    120
78.88    181
78.9     162
78.92    146
78.94    184
78.96    219
78.98    262
79.0     347
79.02    456
79.04    512
79.06    458
79.08    403
79.1     320
79.12    246
79.14    238
79.16    260
79.18    254
79.2     303
79.22    357
79.24    308
79.26    217
79.28    190
79.3     202
79.32    129
79.34    105
79.36    132
79.38    111
79.4     126
79.42    169
79.44    190
79.46    179
79.48    285
79.5     321
79.52    244
79.54    189
79.56    237
79.58    222
79.6     163
79.62    180
79.64    209
79.66    260
79.68    350
79.7     394
79.72    351
79.74    332
79.76    348
79.78    273
79.8     148
79.82    175
79.84    239
79.86    290
79.88    314
79.9     330
79.92    307
79.94    286
79.96    269
79.98    236
80.0     219
80.02    314
80.04    417
80.06    414
80.08    441
80.1     462
80.12    484
80.14    508
80.16    560
80.18    592
80.2     605
80.22    591
80.24    555
80.26    421
80.28    363
80.3     316
80.32    272
80.34    303
80.36    326
80.38    305
80.4     271
80.42    221
80.44    202
80.46    175
80.48    174
80.5     177
80.52    186
80.54    193
80.56    229
80.58    223
80.6     262
80.62    287
80.64    288
80.66    283
80.68    310
80.7     319
80.72    288
80.74    228
80.76    204
80.78    178
80.8     195
80.82    205
80.84    222
80.86    223
80.88    289
80.9     351
80.92    333
80.94    235
80.96    155
80.98    166
81.0     204
81.02    181
81.04    224
81.06    178
81.08    147
81.1     225
81.12    277
81.14    239
81.16    248
81.18    311
81.2     342
81.22    260
81.24    254
81.26    210
81.28    161
81.3     223
81.32    238
81.34    187
81.36    152
81.38    129
81.4     167
81.42    102
81.44    133
81.46    222
81.48    255
81.5     290
81.52    283
81.54    259
81.56    195
81.58    188
81.6     201
81.62    131
81.64    105
81.66    169
81.68    188
81.7     168
81.72    189
81.74    151
81.76    111
81.78    148
81.8     176
81.82    164
81.84    176
81.86    233
81.88    292
81.9     280
81.92    300
81.94    248
81.96    214
81.98    212
82.0     253
82.02    150
82.04    116
82.06    114
82.08    168
82.1     109
82.12    86
82.14    102
82.16    127
82.18    197
82.2     277
82.22    233
82.24    284
82.26    370
82.28    380
82.3     316
82.32    288
82.34    324
82.36    316
82.38    333
82.4     297
82.42    210
82.44    133
82.46    57
82.48    33
82.5     8
82.52    9
82.54    85
82.56    150
82.58    217
82.6     271
82.62    276
82.64    268
82.66    284
82.68    324
82.7     290
82.72    317
82.74    302
82.76    300
82.78    255
82.8     235
82.82    183
82.84    173
82.86    141
82.88    47
82.9     66
82.92    76
82.94    116
82.96    167
82.98    235
83.0     304
83.02    366
83.04    360
83.06    291
83.08    264
83.1     222
83.12    240
83.14    317
83.16    319
83.18    356
83.2     323
83.22    312
83.24    220
83.26    133
83.28    95
83.3     20
83.32    116
83.34    181
83.36    151
83.38    149
83.4     74
83.42    75
83.44    70
83.46    78
83.48    54
83.5     127
83.52    199
83.54    238
83.56    264
83.58    269
83.6     238
83.62    262
83.64    326
83.66    348
83.68    342
83.7     380
83.72    338
83.74    292
83.76    258
83.78    193
83.8     126
83.82    100
83.84    118
83.86    97
83.88    98
83.9     87
83.92    82
83.94    87
83.96    111
83.98    116
84.0     127
84.02    192
84.04    239
84.06    257
84.08    287
84.1     287
84.12    255
84.14    246
84.16    222
84.18    216
84.2     244
84.22    276
84.24    283
84.26    302
84.28    286
84.3     185
84.32    97
84.34    33
84.36    24
84.38    58
84.4     122
84.42    181
84.44    211
84.46    255
84.48    268
84.5     259
84.52    214
84.54    205
84.56    298
84.58    319
84.6     323
84.62    293
84.64    238
84.66    281
84.68    345
84.7     338
84.72    345
84.74    445
84.76    480
84.78    492
84.8     470
84.82    371
84.84    333
84.86    335
84.88    304
84.9     236
84.92    207
84.94    190
84.96    169
84.98    182
85.0     122
85.02    146
85.04    195
85.06    242
85.08    335
85.1     346
85.12    344
85.14    356
85.16    370
85.18    363
85.2     374
85.22    441
85.24    432
85.26    406
85.28    399
85.3     354
85.32    294
85.34    179
85.36    91
85.38    85
85.4     124
85.42    116
85.44    72
85.46    0
85.48    0
85.5     1
85.52    34
85.54    24
85.56    9
85.58    40
85.6     121
85.62    150
85.64    192
85.66    197
85.68    233
85.7     282
85.72    409
85.74    361
85.76    309
85.78    276
85.8     241
85.82    222
85.84    277
85.86    283
85.88    279
85.9     302
85.92    332
85.94    322
85.96    321
85.98    277
86.0     225
86.02    245
86.04    267
86.06    251
86.08    189
86.1     158
86.12    172
86.14    314
86.16    349
86.18    368
86.2     346
86.22    337
86.24    363
86.26    432
86.28    419
86.3     484
86.32    605
86.34    775
86.36    820
86.38    849
86.4     807
86.42    701
86.44    665
86.46    690
86.48    660
86.5     716
86.52    782
86.54    847
86.56    903
86.58    889
86.6     789
86.62    665
86.64    585
86.66    597
86.68    601
86.7     634
86.72    626
86.74    637
86.76    672
86.78    581
86.8     487
86.82    423
86.84    357
86.86    362
86.88    390
86.9     410
86.92    379
86.94    375
86.96    386
86.98    337
87.0     284
87.02    228
87.04    160
87.06    113
87.08    80
87.1     100
87.12    150
87.14    132
87.16    148
87.18    149
87.2     176
87.22    220
87.24    222
87.26    234
87.28    256
87.3     335
87.32    362
87.34    341
87.36    337
87.38    321
87.4     249
87.42    238
87.44    192
87.46    179
87.48    166
87.5     127
87.52    174
87.54    201
87.56    251
87.58    261
87.6     260
87.62    354
87.64    345
87.66    362
87.68    368
87.7     312
87.72    308
87.74    277
87.76    271
87.78    264
87.8     242
87.82    259
87.84    150
87.86    179
87.88    190
87.9     139
87.92    168
87.94    208
87.96    208
87.98    248
88.0     178
88.02    186
88.04    152
88.06    202
88.08    225
88.1     204
88.12    280
88.14    246
88.16    201
88.18    201
88.2     148
88.22    152
88.24    186
88.26    185
88.28    279
88.3     273
88.32    298
88.34    243
88.36    215
88.38    193
88.4     84
88.42    11
88.44    12
88.46    42
88.48    114
88.5     71
88.52    110
88.54    144
88.56    198
88.58    245
88.6     238
88.62    225
88.64    342
88.66    377
88.68    423
88.7     429
88.72    424
88.74    425
88.76    429
88.78    417
88.8     320
88.82    260
88.84    230
88.86    206
88.88    212
88.9     183
88.92    176
88.94    185
88.96    160
88.98    173
89.0     197
89.02    240
89.04    172
89.06    140
89.08    123
89.1     100
89.12    152
89.14    84
89.16    90
89.18    181
89.2     288
89.22    326
89.24    315
89.26    269
89.28    245
89.3     221
89.32    185
89.34    179
89.36    232
89.38    252
89.4     278
89.42    327
89.44    330
89.46    257
89.48    217
89.5     164
89.52    115
89.54    159
89.56    211
89.58    193
89.6     217
89.62    250
89.64    245
89.66    279
89.68    317
89.7     254
89.72    227
89.74    215
89.76    275
89.78    282
89.8     354
89.82    316
89.84    299
89.86    324
89.88    292
89.9     197
89.92    216
89.94    195
89.96    330
89.98    350
90.0     368
