?
5.0      632
5.02     632
5.04     816
5.06     733
5.08     785
5.1      747
5.12     799
5.14     824
5.16     795
5.18     811
5.2      795
5.22     807
5.24     785
5.26     767
5.28     792
5.3      786
5.32     846
5.34     829
5.36     842
5.38     816
5.4      841
5.42     832
5.44     828
5.46     792
5.48     812
5.5      832
5.52     837
5.54     764
5.56     763
5.58     727
5.6      763
5.62     778
5.64     825
5.66     798
5.68     876
5.7      898
5.72     864
5.74     853
5.76     889
5.78     931
5.8      910
5.82     948
5.84     934
5.86     919
5.88     901
5.9      877
5.92     839
5.94     851
5.96     859
5.98     846
6.0      848
6.02     892
6.04     888
6.06     903
6.08     932
6.1      978
6.12     995
6.14     1003
6.16     988
6.18     951
6.2      988
6.22     966
6.24     972
6.26     952
6.28     970
6.3      965
6.32     939
6.34     936
6.36     930
6.38     913
6.4      955
6.42     955
6.44     953
6.46     950
6.48     938
6.5      939
6.52     910
6.54     917
6.56     962
6.58     932
6.6      978
6.62     1033
6.64     984
6.66     971
6.68     971
6.7      970
6.72     906
6.74     893
6.76     906
6.78     879
6.8      887
6.82     895
6.84     854
6.86     853
6.88     884
6.9      855
6.92     836
6.94     897
6.96     911
6.98     891
7.0      875
7.02     903
7.04     915
7.06     878
7.08     872
7.1      835
7.12     883
7.14     916
7.16     942
7.18     925
7.2      980
7.22     1028
7.24     1055
7.26     992
7.28     970
7.3      930
7.32     925
7.34     890
7.36     893
7.38     868
7.4      871
7.42     871
7.44     852
7.46     811
7.48     800
7.5      827
7.52     836
7.54     881
7.56     921
7.58     928
7.6      918
7.62     875
7.64     824
7.66     832
7.68     795
7.7      806
7.72     835
7.74     835
7.76     899
7.78     896
7.8      895
7.82     847
7.84     833
7.86     809
7.88     780
7.9      737
7.92     767
7.94     742
7.96     760
7.98     807
8.0      816
8.02     750
8.04     798
8.06     773
8.08     795
8.1      752
8.12     808
8.14     785
8.16     748
8.18     840
8.2      827
8.22     769
8.24     795
8.26     734
8.28     746
8.3      709
8.32     752
8.34     695
8.36     715
8.38     768
8.4      760
8.42     768
8.44     747
8.46     727
8.48     768
8.5      712
8.52     738
8.54     673
8.56     728
8.58     686
8.6      731
8.62     747
8.64     769
8.66     816
8.68     853
8.7      820
8.72     829
8.74     808
8.76     812
8.78     723
8.8      722
8.82     663
8.84     665
8.86     678
8.88     668
8.9      701
8.92     710
8.94     733
8.96     690
8.98     664
9.0      652
9.02     691
9.04     699
9.06     699
9.08     726
9.1      711
9.12     691
9.14     678
9.16     629
9.18     607
9.2      618
9.22     639
9.24     677
9.26     667
9.28     667
9.3      631
9.32     655
9.34     686
9.36     648
9.38     687
9.4      642
9.42     663
9.44     676
9.46     597
9.48     588
9.5      557
9.52     576
9.54     561
9.56     532
9.58     561
9.6      484
9.62     573
9.64     550
9.66     527
9.68     559
9.7      541
9.72     557
9.74     481
9.76     515
9.78     532
9.8      455
9.82     528
9.84     531
9.86     519
9.88     524
9.9      518
9.92     512
9.94     507
9.96     524
9.98     550
10.0     470
10.02    493
10.04    485
10.06    450
10.08    427
10.1     435
10.12    450
10.14    438
10.16    428
10.18    434
10.2     384
10.22    414
10.24    361
10.26    347
10.28    393
10.3     428
10.32    463
10.34    489
10.36    548
10.38    518
10.4     514
10.42    512
10.44    444
10.46    462
10.48    455
10.5     468
10.52    480
10.54    498
10.56    516
10.58    527
10.6     536
10.62    525
10.64    523
10.66    481
10.68    426
10.7     465
10.72    471
10.74    464
10.76    449
10.78    485
10.8     517
10.82    501
10.84    499
10.86    489
10.88    492
10.9     510
10.92    539
10.94    561
10.96    514
10.98    481
11.0     500
11.02    494
11.04    521
11.06    521
11.08    506
11.1     482
11.12    439
11.14    442
11.16    380
11.18    355
11.2     399
11.22    460
11.24    538
11.26    541
11.28    575
11.3     565
11.32    540
11.34    556
11.36    557
11.38    573
11.4     592
11.42    611
11.44    651
11.46    605
11.48    585
11.5     530
11.52    499
11.54    467
11.56    473
11.58    508
11.6     563
11.62    566
11.64    598
11.66    551
11.68    543
11.7     517
11.72    471
11.74    429
11.76    495
11.78    595
11.8     623
11.82    617
11.84    657
11.86    600
11.88    643
11.9     631
11.92    539
11.94    525
11.96    599
11.98    626
12.0     591
12.02    575
12.04    596
12.06    551
12.08    562
12.1     567
12.12    571
12.14    623
12.16    627
12.18    602
12.2     585
12.22    623
12.24    616
12.26    576
12.28    589
12.3     664
12.32    736
12.34    708
12.36    645
12.38    638
12.4     641
12.42    699
12.44    627
12.46    595
12.48    637
12.5     675
12.52    634
12.54    552
12.56    584
12.58    625
12.6     641
12.62    651
12.64    662
12.66    710
12.68    701
12.7     689
12.72    599
12.74    578
12.76    681
12.78    672
12.8     665
12.82    640
12.84    652
12.86    682
12.88    658
12.9     666
12.92    643
12.94    690
12.96    730
12.98    764
13.0     778
13.02    720
13.04    649
13.06    658
13.08    666
13.1     699
13.12    715
13.14    736
13.16    704
13.18    727
13.2     758
13.22    715
13.24    690
13.26    733
13.28    792
13.3     824
13.32    815
13.34    748
13.36    714
13.38    693
13.4     725
13.42    730
13.44    786
13.46    809
13.48    828
13.5     868
13.52    890
13.54    818
13.56    815
13.58    812
13.6     782
13.62    820
13.64    831
13.66    776
13.68    826
13.7     896
13.72    888
13.74    869
13.76    840
13.78    882
13.8     876
13.82    922
13.84    863
13.86    793
13.88    846
13.9     831
13.92    796
13.94    821
13.96    799
13.98    814
14.0     827
14.02    855
14.04    843
14.06    853
14.08    916
14.1     902
14.12    873
14.14    858
14.16    803
14.18    802
14.2     805
14.22    796
14.24    796
14.26    855
14.28    864
14.3     832
14.32    806
14.34    811
14.36    823
14.38    764
14.4     727
14.42    711
14.44    678
14.46    744
14.48    768
14.5     784
14.52    784
14.54    810
14.56    842
14.58    803
14.6     870
14.62    890
14.64    849
14.66    903
14.68    941
14.7     917
14.72    857
14.74    907
14.76    988
14.78    1021
14.8     991
14.82    981
14.84    951
14.86    940
14.88    929
14.9     863
14.92    885
14.94    1014
14.96    1063
14.98    1007
15.0     944
15.02    1021
15.04    992
15.06    902
15.08    832
15.1     823
15.12    918
15.14    1001
15.16    1005
15.18    925
15.2     966
15.22    1078
15.24    1020
15.26    945
15.28    873
15.3     889
15.32    906
15.34    905
15.36    861
15.38    822
15.4     890
15.42    910
15.44    868
15.46    838
15.48    835
15.5     905
15.52    968
15.54    994
15.56    941
15.58    973
15.6     990
15.62    932
15.64    923
15.66    914
15.68    919
15.7     1029
15.72    1115
15.74    1160
15.76    1141
15.78    1208
15.8     1273
15.82    1256
15.84    1221
15.86    1229
15.88    1216
15.9     1313
15.92    1393
15.94    1483
15.96    1545
15.98    1674
16.0     1801
16.02    1867
16.04    1919
16.06    2016
16.08    2171
16.1     2344
16.12    2485
16.14    2646
16.16    2836
16.18    3121
16.2     3451
16.22    3909
16.24    4380
16.26    4876
16.28    5640
16.3     6478
16.32    7392
16.34    8559
16.36    10068
16.38    11900
16.4     14237
16.42    17214
16.44    20922
16.46    25434
16.48    30725
16.5     36284
16.52    41302
16.54    44900
16.56    46202
16.58    44701
16.6     40645
16.62    34640
16.64    27721
16.66    20968
16.68    15216
16.7     10921
16.72    8046
16.74    6259
16.76    5132
16.78    4329
16.8     3686
16.82    3213
16.84    2829
16.86    2580
16.88    2355
16.9     2154
16.92    2052
16.94    1977
16.96    1885
16.98    1786
17.0     1691
17.02    1655
17.04    1606
17.06    1539
17.08    1471
17.1     1421
17.12    1379
17.14    1306
17.16    1238
17.18    1170
17.2     1089
17.22    1066
17.24    1090
17.26    1094
17.28    1078
17.3     1089
17.32    1100
17.34    1061
17.36    1026
17.38    975
17.4     960
17.42    963
17.44    910
17.46    825
17.48    782
17.5     811
17.52    844
17.54    828
17.56    792
17.58    833
17.6     902
17.62    874
17.64    819
17.66    844
17.68    831
17.7     797
17.72    768
17.74    772
17.76    692
17.78    675
17.8     691
17.82    726
17.84    740
17.86    760
17.88    742
17.9     780
17.92    787
17.94    732
17.96    685
17.98    707
18.0     769
18.02    826
18.04    764
18.06    715
18.08    788
18.1     866
18.12    811
18.14    703
18.16    655
18.18    666
18.2     663
18.22    636
18.24    598
18.26    657
18.28    757
18.3     779
18.32    746
18.34    739
18.36    695
18.38    657
18.4     600
18.42    556
18.44    557
18.46    594
18.48    594
18.5     569
18.52    562
18.54    605
18.56    570
18.58    582
18.6     588
18.62    614
18.64    686
18.66    734
18.68    728
18.7     727
18.72    674
18.74    629
18.76    617
18.78    693
18.8     674
18.82    682
18.84    721
18.86    729
18.88    632
18.9     637
18.92    577
18.94    609
18.96    605
18.98    632
19.0     633
19.02    658
19.04    662
19.06    691
19.08    596
19.1     584
19.12    524
19.14    581
19.16    490
19.18    538
19.2     597
19.22    666
19.24    638
19.26    630
19.28    590
19.3     567
19.32    521
19.34    532
19.36    504
19.38    562
19.4     557
19.42    517
19.44    462
19.46    457
19.48    477
19.5     431
19.52    431
19.54    456
19.56    537
19.58    593
19.6     584
19.62    548
19.64    548
19.66    561
19.68    584
19.7     548
19.72    521
19.74    506
19.76    567
19.78    497
19.8     466
19.82    425
19.84    516
19.86    570
19.88    597
19.9     556
19.92    452
19.94    427
19.96    430
19.98    375
20.0     431
20.02    438
20.04    519
20.06    543
20.08    557
20.1     528
20.12    459
20.14    502
20.16    537
20.18    548
20.2     538
20.22    486
20.24    461
20.26    463
20.28    440
20.3     432
20.32    408
20.34    436
20.36    419
20.38    376
20.4     444
20.42    493
20.44    504
20.46    532
20.48    507
20.5     497
20.52    475
20.54    422
20.56    357
20.58    346
20.6     392
20.62    406
20.64    438
20.66    495
20.68    541
20.7     581
20.72    653
20.74    620
20.76    649
20.78    614
20.8     490
20.82    409
20.84    429
20.86    459
20.88    443
20.9     479
20.92    543
20.94    562
20.96    639
20.98    573
21.0     511
21.02    451
21.04    482
21.06    495
21.08    426
21.1     464
21.12    472
21.14    526
21.16    607
21.18    624
21.2     649
21.22    576
21.24    523
21.26    525
21.28    505
21.3     497
21.32    462
21.34    466
21.36    473
21.38    474
21.4     508
21.42    491
21.44    489
21.46    550
21.48    580
21.5     544
21.52    470
21.54    416
21.56    374
21.58    377
21.6     445
21.62    467
21.64    479
21.66    491
21.68    447
21.7     411
21.72    420
21.74    365
21.76    392
21.78    404
21.8     425
21.82    379
21.84    396
21.86    390
21.88    374
21.9     412
21.92    426
21.94    392
21.96    391
21.98    387
22.0     347
22.02    320
22.04    368
22.06    393
22.08    399
22.1     406
22.12    378
22.14    423
22.16    421
22.18    448
22.2     410
22.22    384
22.24    383
22.26    383
22.28    381
22.3     393
22.32    406
22.34    412
22.36    392
22.38    329
22.4     335
22.42    279
22.44    326
22.46    353
22.48    387
22.5     448
22.52    466
22.54    436
22.56    394
22.58    335
22.6     360
22.62    386
22.64    476
22.66    456
22.68    446
22.7     469
22.72    453
22.74    429
22.76    382
22.78    365
22.8     362
22.82    369
22.84    381
22.86    384
22.88    394
22.9     370
22.92    350
22.94    360
22.96    374
22.98    408
23.0     417
23.02    416
23.04    446
23.06    462
23.08    464
23.1     419
23.12    343
23.14    298
23.16    318
23.18    367
23.2     364
23.22    341
23.24    291
23.26    301
23.28    360
23.3     365
23.32    336
23.34    309
23.36    404
23.38    401
23.4     399
23.42    377
23.44    294
23.46    318
23.48    362
23.5     392
23.52    437
23.54    391
23.56    439
23.58    432
23.6     431
23.62    398
23.64    287
23.66    264
23.68    264
23.7     304
23.72    370
23.74    367
23.76    393
23.78    400
23.8     363
23.82    362
23.84    302
23.86    348
23.88    307
23.9     365
23.92    333
23.94    380
23.96    398
23.98    403
24.0     380
24.02    390
24.04    386
24.06    414
24.08    375
24.1     411
24.12    415
24.14    420
24.16    453
24.18    439
24.2     449
24.22    449
24.24    385
24.26    301
24.28    274
24.3     286
24.32    347
24.34    282
24.36    345
24.38    347
24.4     428
24.42    451
24.44    419
24.46    347
24.48    364
24.5     378
24.52    363
24.54    267
24.56    203
24.58    197
24.6     214
24.62    262
24.64    309
24.66    336
24.68    428
24.7     446
24.72    401
24.74    297
24.76    235
24.78    244
24.8     260
24.82    376
24.84    432
24.86    455
24.88    441
24.9     396
24.92    336
24.94    255
24.96    267
24.98    275
25.0     341
25.02    362
25.04    387
25.06    376
25.08    362
25.1     307
25.12    340
25.14    321
25.16    363
25.18    394
25.2     384
25.22    350
25.24    317
25.26    303
25.28    304
25.3     252
25.32    281
25.34    233
25.36    279
25.38    330
25.4     283
25.42    246
25.44    215
25.46    263
25.48    334
25.5     356
25.52    405
25.54    459
25.56    528
25.58    467
25.6     365
25.62    243
25.64    221
25.66    214
25.68    241
25.7     230
25.72    267
25.74    361
25.76    380
25.78    350
25.8     316
25.82    231
25.84    198
25.86    207
25.88    252
25.9     310
25.92    326
25.94    354
25.96    319
25.98    320
26.0     280
26.02    188
26.04    176
26.06    226
26.08    305
26.1     358
26.12    332
26.14    365
26.16    338
26.18    334
26.2     294
26.22    238
26.24    263
26.26    297
26.28    300
26.3     340
26.32    298
26.34    346
26.36    335
26.38    291
26.4     255
26.42    193
26.44    220
26.46    251
26.48    270
26.5     307
26.52    242
26.54    272
26.56    317
26.58    320
26.6     341
26.62    283
26.64    333
26.66    327
26.68    358
26.7     332
26.72    300
26.74    307
26.76    322
26.78    310
26.8     309
26.82    234
26.84    253
26.86    294
26.88    299
26.9     308
26.92    266
26.94    262
26.96    294
26.98    275
27.0     298
27.02    261
27.04    295
27.06    289
27.08    266
27.1     282
27.12    222
27.14    206
27.16    265
27.18    271
27.2     301
27.22    340
27.24    341
27.26    331
27.28    344
27.3     329
27.32    265
27.34    231
27.36    238
27.38    242
27.4     264
27.42    291
27.44    274
27.46    234
27.48    157
27.5     158
27.52    175
27.54    213
27.56    214
27.58    242
27.6     269
27.62    234
27.64    199
27.66    128
27.68    106
27.7     149
27.72    271
27.74    293
27.76    341
27.78    349
27.8     351
27.82    330
27.84    322
27.86    277
27.88    217
27.9     188
27.92    251
27.94    241
27.96    337
27.98    335
28.0     362
28.02    365
28.04    332
28.06    214
28.08    148
28.1     140
28.12    174
28.14    273
28.16    311
28.18    269
28.2     297
28.22    242
28.24    209
28.26    160
28.28    207
28.3     225
28.32    234
28.34    277
28.36    258
28.38    283
28.4     351
28.42    350
28.44    347
28.46    360
28.48    368
28.5     285
28.52    235
28.54    234
28.56    238
28.58    298
28.6     319
28.62    315
28.64    281
28.66    275
28.68    293
28.7     251
28.72    246
28.74    238
28.76    224
28.78    236
28.8     233
28.82    246
28.84    265
28.86    247
28.88    274
28.9     262
28.92    319
28.94    359
28.96    368
28.98    368
29.0     349
29.02    300
29.04    236
29.06    171
29.08    126
29.1     157
29.12    198
29.14    252
29.16    289
29.18    296
29.2     279
29.22    244
29.24    250
29.26    269
29.28    278
29.3     271
29.32    209
29.34    204
29.36    215
29.38    206
29.4     212
29.42    173
29.44    191
29.46    213
29.48    203
29.5     218
29.52    227
29.54    223
29.56    274
29.58    260
29.6     247
29.62    244
29.64    221
29.66    205
29.68    177
29.7     182
29.72    203
29.74    201
29.76    210
29.78    195
29.8     221
29.82    280
29.84    311
29.86    371
29.88    436
29.9     445
29.92    480
29.94    483
29.96    437
29.98    398
30.0     387
30.02    391
30.04    327
30.06    302
30.08    299
30.1     249
30.12    265
30.14    300
30.16    314
30.18    339
30.2     363
30.22    333
30.24    234
30.26    223
30.28    206
30.3     209
30.32    292
30.34    342
30.36    377
30.38    390
30.4     338
30.42    304
30.44    237
30.46    247
30.48    189
30.5     207
30.52    271
30.54    281
30.56    274
30.58    277
30.6     273
30.62    282
30.64    301
30.66    333
30.68    309
30.7     320
30.72    303
30.74    289
30.76    241
30.78    256
30.8     297
30.82    274
30.84    292
30.86    300
30.88    289
30.9     233
30.92    167
30.94    167
30.96    99
30.98    142
31.0     236
31.02    275
31.04    320
31.06    342
31.08    336
31.1     298
31.12    240
31.14    227
31.16    224
31.18    271
31.2     362
31.22    384
31.24    369
31.26    296
31.28    270
31.3     255
31.32    223
31.34    305
31.36    384
31.38    365
31.4     379
31.42    310
31.44    260
31.46    251
31.48    289
31.5     331
31.52    295
31.54    370
31.56    310
31.58    279
31.6     247
31.62    212
31.64    268
31.66    328
31.68    376
31.7     364
31.72    305
31.74    295
31.76    240
31.78    324
31.8     338
31.82    357
31.84    361
31.86    267
31.88    244
31.9     226
31.92    254
31.94    306
31.96    338
31.98    402
32.0     427
32.02    425
32.04    401
32.06    357
32.08    384
32.1     404
32.12    389
32.14    301
32.16    209
32.18    177
32.2     201
32.22    318
32.24    478
32.26    580
32.28    641
32.3     641
32.32    564
32.34    416
32.36    335
32.38    255
32.4     258
32.42    330
32.44    435
32.46    496
32.48    517
32.5     521
32.52    449
32.54    381
32.56    329
32.58    353
32.6     373
32.62    380
32.64    429
32.66    467
32.68    419
32.7     463
32.72    480
32.74    522
32.76    570
32.78    578
32.8     541
32.82    475
32.84    455
32.86    457
32.88    437
32.9     528
32.92    547
32.94    587
32.96    576
32.98    512
33.0     509
33.02    463
33.04    461
33.06    524
33.08    526
33.1     534
33.12    559
33.14    619
33.16    668
33.18    757
33.2     840
33.22    859
33.24    912
33.26    1032
33.28    1190
33.3     1380
33.32    1649
33.34    2003
33.36    2386
33.38    2838
33.4     3446
33.42    4174
33.44    5127
33.46    6279
33.48    7518
33.5     8604
33.52    9468
33.54    10011
33.56    10041
33.58    9526
33.6     8691
33.62    7548
33.64    6356
33.66    5231
33.68    4169
33.7     3283
33.72    2662
33.74    2184
33.76    1781
33.78    1446
33.8     1276
33.82    1066
33.84    1019
33.86    942
33.88    859
33.9     795
33.92    744
33.94    670
33.96    580
33.98    617
34.0     673
34.02    636
34.04    691
34.06    635
34.08    592
34.1     511
34.12    471
34.14    445
34.16    447
34.18    570
34.2     651
34.22    646
34.24    640
34.26    565
34.28    470
34.3     401
34.32    397
34.34    406
34.36    487
34.38    629
34.4     688
34.42    696
34.44    662
34.46    625
34.48    598
34.5     600
34.52    641
34.54    692
34.56    708
34.58    705
34.6     626
34.62    574
34.64    530
34.66    561
34.68    616
34.7     644
34.72    669
34.74    684
34.76    692
34.78    693
34.8     658
34.82    696
34.84    720
34.86    788
34.88    894
34.9     1017
34.92    1112
34.94    1301
34.96    1571
34.98    1927
35.0     2523
35.02    3377
35.04    4556
35.06    6143
35.08    7865
35.1     9530
35.12    10709
35.14    11321
35.16    11201
35.18    10365
35.2     9095
35.22    7470
35.24    5881
35.26    4542
35.28    3412
35.3     2605
35.32    1976
35.34    1510
35.36    1201
35.38    924
35.4     788
35.42    697
35.44    655
35.46    670
35.48    718
35.5     728
35.52    787
35.54    806
35.56    764
35.58    684
35.6     623
35.62    595
35.64    609
35.66    636
35.68    683
35.7     652
35.72    706
35.74    708
35.76    608
35.78    547
35.8     488
35.82    446
35.84    516
35.86    605
35.88    688
35.9     689
35.92    758
35.94    756
35.96    689
35.98    688
36.0     707
36.02    759
36.04    878
36.06    1000
36.08    1048
36.1     1056
36.12    1034
36.14    1009
36.16    1041
36.18    1138
36.2     1266
36.22    1513
36.24    1768
36.26    2088
36.28    2482
36.3     3021
36.32    3694
36.34    4691
36.36    6051
36.38    7776
36.4     10062
36.42    12873
36.44    15857
36.46    18661
36.48    20866
36.5     22003
36.52    21833
36.54    20406
36.56    17916
36.58    14801
36.6     11651
36.62    8796
36.64    6472
36.66    4777
36.68    3625
36.7     2844
36.72    2358
36.74    2046
36.76    1823
36.78    1668
36.8     1513
36.82    1314
36.84    1181
36.86    1019
36.88    901
36.9     805
36.92    822
36.94    838
36.96    871
36.98    847
37.0     829
37.02    778
37.04    748
37.06    632
37.08    602
37.1     547
37.12    615
37.14    619
37.16    651
37.18    678
37.2     756
37.22    774
37.24    793
37.26    794
37.28    800
37.3     796
37.32    831
37.34    801
37.36    831
37.38    873
37.4     917
37.42    836
37.44    800
37.46    741
37.48    625
37.5     605
37.52    575
37.54    543
37.56    565
37.58    602
37.6     629
37.62    589
37.64    607
37.66    576
37.68    503
37.7     496
37.72    496
37.74    507
37.76    582
37.78    649
37.8     691
37.82    664
37.84    618
37.86    548
37.88    457
37.9     387
37.92    413
37.94    467
37.96    531
37.98    569
38.0     591
38.02    544
38.04    488
38.06    443
38.08    365
38.1     346
38.12    341
38.14    356
38.16    300
38.18    304
38.2     356
38.22    438
38.24    482
38.26    556
38.28    534
38.3     560
38.32    453
38.34    423
38.36    339
38.38    321
38.4     269
38.42    404
38.44    397
38.46    430
38.48    446
38.5     512
38.52    430
38.54    477
38.56    542
38.58    519
38.6     459
38.62    513
38.64    432
38.66    341
38.68    400
38.7     390
38.72    350
38.74    351
38.76    437
38.78    354
38.8     339
38.82    338
38.84    325
38.86    263
38.88    357
38.9     343
38.92    359
38.94    299
38.96    346
38.98    330
39.0     378
39.02    397
39.04    460
39.06    433
39.08    464
39.1     408
39.12    340
39.14    282
39.16    295
39.18    323
39.2     334
39.22    361
39.24    416
39.26    326
39.28    315
39.3     235
39.32    203
39.34    278
39.36    381
39.38    499
39.4     574
39.42    636
39.44    629
39.46    514
39.48    441
39.5     345
39.52    291
39.54    287
39.56    313
39.58    337
39.6     333
39.62    347
39.64    340
39.66    360
39.68    371
39.7     451
39.72    523
39.74    576
39.76    613
39.78    627
39.8     554
39.82    460
39.84    398
39.86    370
39.88    255
39.9     328
39.92    448
39.94    552
39.96    650
39.98    744
40.0     730
40.02    686
40.04    678
40.06    586
40.08    514
40.1     561
40.12    640
40.14    691
40.16    837
40.18    869
40.2     900
40.22    898
40.24    892
40.26    786
40.28    750
40.3     680
40.32    698
40.34    762
40.36    876
40.38    882
40.4     944
40.42    921
40.44    857
40.46    766
40.48    733
40.5     688
40.52    695
40.54    736
40.56    778
40.58    827
40.6     870
40.62    908
40.64    889
40.66    930
40.68    968
40.7     1005
40.72    993
40.74    1046
40.76    1052
40.78    1096
40.8     1110
40.82    1126
40.84    1130
40.86    1135
40.88    1138
40.9     1277
40.92    1345
40.94    1487
40.96    1579
40.98    1708
41.0     1780
41.02    1819
41.04    1904
41.06    1899
41.08    1977
41.1     2128
41.12    2254
41.14    2439
41.16    2739
41.18    3065
41.2     3437
41.22    3854
41.24    4440
41.26    5048
41.28    5831
41.3     6844
41.32    8110
41.34    9744
41.36    11915
41.38    14655
41.4     18303
41.42    23045
41.44    29299
41.46    37070
41.48    46262
41.5     56013
41.52    64941
41.54    71696
41.56    74882
41.58    73957
41.6     69153
41.62    61124
41.64    51472
41.66    41525
41.68    32554
41.7     25179
41.72    19426
41.74    15095
41.76    11880
41.78    9529
41.8     7741
41.82    6420
41.84    5494
41.86    4788
41.88    4222
41.9     3844
41.92    3437
41.94    3162
41.96    2903
41.98    2660
42.0     2359
42.02    2180
42.04    2036
42.06    1900
42.08    1835
42.1     1751
42.12    1654
42.14    1588
42.16    1478
42.18    1392
42.2     1276
42.22    1212
42.24    1199
42.26    1125
42.28    1158
42.3     1124
42.32    1141
42.34    1128
42.36    1170
42.38    1127
42.4     1125
42.42    1089
42.44    1023
42.46    955
42.48    930
42.5     956
42.52    975
42.54    1000
42.56    1037
42.58    1032
42.6     932
42.62    775
42.64    712
42.66    703
42.68    702
42.7     764
42.72    872
42.74    960
42.76    992
42.78    938
42.8     811
42.82    705
42.84    631
42.86    576
42.88    601
42.9     651
42.92    719
42.94    764
42.96    799
42.98    802
43.0     821
43.02    771
43.04    696
43.06    673
43.08    622
43.1     611
43.12    595
43.14    655
43.16    699
43.18    757
43.2     756
43.22    730
43.24    748
43.26    681
43.28    581
43.3     565
43.32    520
43.34    529
43.36    513
43.38    590
43.4     571
43.42    622
43.44    700
43.46    707
43.48    721
43.5     680
43.52    673
43.54    619
43.56    612
43.58    648
43.6     575
43.62    555
43.64    514
43.66    528
43.68    442
43.7     432
43.72    477
43.74    480
43.76    595
43.78    690
43.8     698
43.82    699
43.84    652
43.86    653
43.88    547
43.9     535
43.92    516
43.94    523
43.96    582
43.98    615
44.0     570
44.02    574
44.04    585
44.06    557
44.08    493
44.1     498
44.12    523
44.14    511
44.16    524
44.18    497
44.2     542
44.22    507
44.24    453
44.26    422
44.28    466
44.3     523
44.32    515
44.34    535
44.36    560
44.38    577
44.4     615
44.42    484
44.44    474
44.46    550
44.48    607
44.5     630
44.52    668
44.54    685
44.56    646
44.58    593
44.6     539
44.62    428
44.64    451
44.66    476
44.68    506
44.7     568
44.72    640
44.74    683
44.76    705
44.78    699
44.8     713
44.82    690
44.84    720
44.86    728
44.88    788
44.9     882
44.92    960
44.94    1133
44.96    1280
44.98    1388
45.0     1512
45.02    1587
45.04    1598
45.06    1568
45.08    1553
45.1     1509
45.12    1418
45.14    1389
45.16    1267
45.18    1148
45.2     1040
45.22    896
45.24    793
45.26    704
45.28    708
45.3     701
45.32    730
45.34    761
45.36    687
45.38    618
45.4     547
45.42    434
45.44    340
45.46    274
45.48    284
45.5     319
45.52    403
45.54    458
45.56    496
45.58    530
45.6     589
45.62    600
45.64    586
45.66    524
45.68    449
45.7     420
45.72    353
45.74    283
45.76    268
45.78    279
45.8     307
45.82    393
45.84    442
45.86    431
45.88    461
45.9     492
45.92    491
45.94    459
45.96    438
45.98    437
46.0     442
46.02    456
46.04    463
46.06    452
46.08    503
46.1     492
46.12    477
46.14    449
46.16    413
46.18    409
46.2     358
46.22    339
46.24    369
46.26    327
46.28    403
46.3     457
46.32    511
46.34    557
46.36    619
46.38    657
46.4     560
46.42    501
46.44    493
46.46    427
46.48    397
46.5     377
46.52    364
46.54    404
46.56    410
46.58    411
46.6     386
46.62    417
46.64    447
46.66    427
46.68    443
46.7     444
46.72    468
46.74    491
46.76    449
46.78    474
46.8     418
46.82    401
46.84    365
46.86    401
46.88    468
46.9     407
46.92    472
46.94    530
46.96    483
46.98    404
47.0     293
47.02    285
47.04    289
47.06    309
47.08    346
47.1     332
47.12    467
47.14    532
47.16    502
47.18    487
47.2     482
47.22    496
47.24    427
47.26    378
47.28    345
47.3     332
47.32    406
47.34    441
47.36    502
47.38    549
47.4     595
47.42    584
47.44    516
47.46    427
47.48    382
47.5     366
47.52    392
47.54    450
47.56    548
47.58    615
47.6     678
47.62    685
47.64    643
47.66    554
47.68    533
47.7     457
47.72    362
47.74    370
47.76    396
47.78    408
47.8     442
47.82    476
47.84    512
47.86    540
47.88    546
47.9     493
47.92    418
47.94    371
47.96    365
47.98    380
48.0     392
48.02    471
48.04    546
48.06    635
48.08    654
48.1     665
48.12    658
48.14    604
48.16    524
48.18    470
48.2     357
48.22    315
48.24    274
48.26    307
48.28    379
48.3     443
48.32    473
48.34    541
48.36    568
48.38    578
48.4     528
48.42    504
48.44    485
48.46    514
48.48    530
48.5     475
48.52    446
48.54    434
48.56    401
48.58    284
48.6     282
48.62    273
48.64    291
48.66    353
48.68    396
48.7     438
48.72    463
48.74    434
48.76    433
48.78    408
48.8     437
48.82    485
48.84    495
48.86    502
48.88    523
48.9     516
48.92    494
48.94    419
48.96    368
48.98    310
49.0     258
49.02    251
49.04    154
49.06    162
49.08    274
49.1     335
49.12    426
49.14    484
49.16    596
49.18    612
49.2     536
49.22    485
49.24    395
49.26    321
49.28    282
49.3     254
49.32    313
49.34    360
49.36    491
49.38    503
49.4     570
49.42    620
49.44    553
49.46    474
49.48    453
49.5     386
49.52    277
49.54    196
49.56    228
49.58    232
49.6     295
49.62    319
49.64    424
49.66    563
49.68    636
49.7     643
49.72    599
49.74    513
49.76    373
49.78    250
49.8     145
49.82    140
49.84    168
49.86    195
49.88    204
49.9     338
49.92    411
49.94    394
49.96    437
49.98    486
50.0     524
50.02    520
50.04    403
50.06    371
50.08    320
50.1     342
50.12    309
50.14    298
50.16    423
50.18    471
50.2     539
50.22    519
50.24    530
50.26    539
50.28    535
50.3     449
50.32    364
50.34    273
50.36    257
50.38    244
50.4     334
50.42    360
50.44    424
50.46    429
50.48    508
50.5     470
50.52    442
50.54    330
50.56    279
50.58    322
50.6     337
50.62    317
50.64    375
50.66    408
50.68    474
50.7     454
50.72    441
50.74    413
50.76    386
50.78    429
50.8     413
50.82    413
50.84    443
50.86    428
50.88    434
50.9     442
50.92    385
50.94    358
50.96    328
50.98    411
51.0     460
51.02    508
51.04    479
51.06    478
51.08    480
51.1     538
51.12    442
51.14    369
51.16    339
51.18    393
51.2     390
51.22    394
51.24    340
51.26    362
51.28    403
51.3     489
51.32    452
51.34    425
51.36    432
51.38    452
51.4     428
51.42    418
51.44    418
51.46    418
51.48    449
51.5     439
51.52    457
51.54    445
51.56    397
51.58    342
51.6     337
51.62    321
51.64    340
51.66    341
51.68    378
51.7     401
51.72    547
51.74    548
51.76    510
51.78    469
51.8     477
51.82    502
51.84    535
51.86    504
51.88    517
51.9     503
51.92    559
51.94    525
51.96    500
51.98    482
52.0     461
52.02    517
52.04    508
52.06    501
52.08    451
52.1     423
52.12    435
52.14    477
52.16    482
52.18    537
52.2     508
52.22    553
52.24    580
52.26    604
52.28    565
52.3     600
52.32    613
52.34    620
52.36    573
52.38    583
52.4     437
52.42    426
52.44    389
52.46    387
52.48    330
52.5     303
52.52    304
52.54    399
52.56    475
52.58    556
52.6     558
52.62    653
52.64    679
52.66    718
52.68    634
52.7     576
52.72    523
52.74    515
52.76    436
52.78    412
52.8     412
52.82    435
52.84    449
52.86    537
52.88    618
52.9     763
52.92    835
52.94    823
52.96    784
52.98    805
53.0     746
53.02    678
53.04    566
53.06    624
53.08    712
53.1     809
53.12    870
53.14    950
53.16    998
53.18    1169
53.2     1270
53.22    1347
53.24    1502
53.26    1771
53.28    2005
53.3     2311
53.32    2682
53.34    3158
53.36    3687
53.38    4341
53.4     4903
53.42    5438
53.44    5934
53.46    6192
53.48    6175
53.5     5998
53.52    5556
53.54    4994
53.56    4412
53.58    3768
53.6     3176
53.62    2719
53.64    2350
53.66    2000
53.68    1772
53.7     1579
53.72    1375
53.74    1236
53.76    1150
53.78    1063
53.8     1011
53.82    945
53.84    929
53.86    860
53.88    852
53.9     742
53.92    683
53.94    629
53.96    579
53.98    536
54.0     496
54.02    483
54.04    516
54.06    544
54.08    568
54.1     539
54.12    612
54.14    660
54.16    662
54.18    645
54.2     622
54.22    614
54.24    562
54.26    505
54.28    418
54.3     365
54.32    396
54.34    387
54.36    358
54.38    385
54.4     413
54.42    437
54.44    409
54.46    339
54.48    386
54.5     431
54.52    481
54.54    456
54.56    489
54.58    534
54.6     573
54.62    583
54.64    523
54.66    506
54.68    582
54.7     608
54.72    652
54.74    595
54.76    580
54.78    495
54.8     481
54.82    405
54.84    341
54.86    295
54.88    309
54.9     325
54.92    359
54.94    340
54.96    341
54.98    347
55.0     439
55.02    489
55.04    501
55.06    511
55.08    522
55.1     464
55.12    448
55.14    398
55.16    317
55.18    332
55.2     374
55.22    473
55.24    499
55.26    589
55.28    581
55.3     553
55.32    550
55.34    470
55.36    365
55.38    274
55.4     173
55.42    152
55.44    185
55.46    202
55.48    263
55.5     356
55.52    521
55.54    640
55.56    748
55.58    736
55.6     652
55.62    565
55.64    507
55.66    415
55.68    370
55.7     370
55.72    427
55.74    465
55.76    571
55.78    580
55.8     596
55.82    601
55.84    613
55.86    598
55.88    546
55.9     514
55.92    425
55.94    384
55.96    373
55.98    293
56.0     317
56.02    298
56.04    294
56.06    308
56.08    367
56.1     416
56.12    436
56.14    551
56.16    640
56.18    633
56.2     603
56.22    549
56.24    501
56.26    494
56.28    428
56.3     328
56.32    243
56.34    293
56.36    340
56.38    366
56.4     378
56.42    462
56.44    489
56.46    554
56.48    532
56.5     470
56.52    424
56.54    409
56.56    382
56.58    409
56.6     378
56.62    351
56.64    396
56.66    505
56.68    617
56.7     646
56.72    682
56.74    702
56.76    724
56.78    733
56.8     609
56.82    515
56.84    519
56.86    527
56.88    479
56.9     385
56.92    334
56.94    341
56.96    395
56.98    419
57.0     409
57.02    483
57.04    503
57.06    572
57.08    584
57.1     573
57.12    591
57.14    623
57.16    650
57.18    650
57.2     690
57.22    663
57.24    579
57.26    551
57.28    486
57.3     462
57.32    482
57.34    492
57.36    514
57.38    599
57.4     684
57.42    776
57.44    810
57.46    774
57.48    746
57.5     794
57.52    760
57.54    686
57.56    629
57.58    539
57.6     584
57.62    666
57.64    687
57.66    681
57.68    723
57.7     836
57.72    955
57.74    1066
57.76    1096
57.78    1050
57.8     1178
57.82    1254
57.84    1315
57.86    1357
57.88    1429
57.9     1547
57.92    1744
57.94    1956
57.96    2083
57.98    2271
58.0     2554
58.02    2793
58.04    3132
58.06    3639
58.08    4156
58.1     4770
58.12    5556
58.14    6565
58.16    7694
58.18    8951
58.2     10192
58.22    11383
58.24    12474
58.26    13308
58.28    13591
58.3     13461
58.32    12939
58.34    12060
58.36    10945
58.38    9604
58.4     8232
58.42    7021
58.44    5955
58.46    5109
58.48    4269
58.5     3671
58.52    3204
58.54    2795
58.56    2533
58.58    2232
58.6     1996
58.62    1860
58.64    1753
58.66    1691
58.68    1523
58.7     1482
58.72    1348
58.74    1246
58.76    1215
58.78    1109
58.8     963
58.82    835
58.84    760
58.86    675
58.88    673
58.9     711
58.92    613
58.94    590
58.96    632
58.98    625
59.0     638
59.02    646
59.04    704
59.06    703
59.08    810
59.1     791
59.12    730
59.14    707
59.16    660
59.18    614
59.2     593
59.22    554
59.24    489
59.26    477
59.28    503
59.3     437
59.32    471
59.34    421
59.36    416
59.38    430
59.4     458
59.42    462
59.44    471
59.46    538
59.48    574
59.5     542
59.52    495
59.54    416
59.56    443
59.58    428
59.6     380
59.62    385
59.64    370
59.66    384
59.68    432
59.7     511
59.72    533
59.74    562
59.76    599
59.78    560
59.8     520
59.82    495
59.84    423
59.86    356
59.88    338
59.9     440
59.92    436
59.94    452
59.96    414
59.98    399
60.0     395
60.02    459
60.04    536
60.06    512
60.08    567
60.1     674
60.12    742
60.14    701
60.16    593
60.18    538
60.2     436
60.22    459
60.24    428
60.26    323
60.28    252
60.3     251
60.32    282
60.34    313
60.36    393
60.38    439
60.4     445
60.42    578
60.44    653
60.46    642
60.48    608
60.5     610
60.52    525
60.54    539
60.56    489
60.58    370
60.6     279
60.62    303
60.64    332
60.66    316
60.68    342
60.7     371
60.72    360
60.74    418
60.76    459
60.78    477
60.8     512
60.82    568
60.84    596
60.86    521
60.88    505
60.9     484
60.92    434
60.94    417
60.96    371
60.98    345
61.0     366
61.02    405
61.04    409
61.06    393
61.08    458
61.1     477
61.12    448
61.14    556
61.16    563
61.18    593
61.2     628
61.22    592
61.24    539
61.26    491
61.28    468
61.3     371
61.32    295
61.34    348
61.36    376
61.38    392
61.4     370
61.42    361
61.44    407
61.46    456
61.48    543
61.5     613
61.52    643
61.54    728
61.56    740
61.58    725
61.6     629
61.62    634
61.64    586
61.66    548
61.68    564
61.7     596
61.72    650
61.74    755
61.76    792
61.78    935
61.8     1025
61.82    1194
61.84    1283
61.86    1423
61.88    1548
61.9     1704
61.92    1933
61.94    2221
61.96    2586
61.98    3043
62.0     3634
62.02    4428
62.04    5430
62.06    6776
62.08    8278
62.1     9961
62.12    11744
62.14    13409
62.16    14686
62.18    15363
62.2     15438
62.22    14922
62.24    13873
62.26    12592
62.28    11022
62.3     9445
62.32    8112
62.34    6897
62.36    5814
62.38    4931
62.4     4189
62.42    3599
62.44    3046
62.46    2712
62.48    2358
62.5     2104
62.52    1951
62.54    1714
62.56    1516
62.58    1355
62.6     1167
62.62    1029
62.64    880
62.66    824
62.68    805
62.7     795
62.72    789
62.74    739
62.76    759
62.78    760
62.8     722
62.82    739
62.84    744
62.86    662
62.88    692
62.9     637
62.92    617
62.94    642
62.96    679
62.98    701
63.0     677
63.02    694
63.04    582
63.06    434
63.08    430
63.1     354
63.12    321
63.14    398
63.16    402
63.18    436
63.2     491
63.22    559
63.24    492
63.26    509
63.28    514
63.3     463
63.32    426
63.34    456
63.36    424
63.38    354
63.4     298
63.42    291
63.44    315
63.46    408
63.48    458
63.5     484
63.52    503
63.54    535
63.56    548
63.58    548
63.6     510
63.62    502
63.64    572
63.66    607
63.68    610
63.7     594
63.72    590
63.74    510
63.76    429
63.78    522
63.8     517
63.82    550
63.84    568
63.86    514
63.88    463
63.9     462
63.92    422
63.94    383
63.96    253
63.98    298
64.0     286
64.02    354
64.04    377
64.06    414
64.08    452
64.1     524
64.12    538
64.14    680
64.16    602
64.18    626
64.2     656
64.22    668
64.24    616
64.26    538
64.28    488
64.3     412
64.32    348
64.34    413
64.36    352
64.38    369
64.4     418
64.42    501
64.44    563
64.46    602
64.48    633
64.5     721
64.52    754
64.54    862
64.56    910
64.58    948
64.6     1004
64.62    1165
64.64    1331
64.66    1526
64.68    1722
64.7     2011
64.72    2173
64.74    2517
64.76    2815
64.78    3129
64.8     3414
64.82    3679
64.84    3902
64.86    4003
64.88    4017
64.9     3893
64.92    3559
64.94    3264
64.96    2918
64.98    2635
65.0     2364
65.02    2106
65.04    1905
65.06    1658
65.08    1472
65.1     1320
65.12    1116
65.14    979
65.16    903
65.18    841
65.2     816
65.22    758
65.24    713
65.26    661
65.28    597
65.3     549
65.32    505
65.34    519
65.36    529
65.38    537
65.4     568
65.42    560
65.44    607
65.46    560
65.48    443
65.5     390
65.52    361
65.54    355
65.56    354
65.58    353
65.6     340
65.62    317
65.64    355
65.66    277
65.68    246
65.7     325
65.72    373
65.74    452
65.76    510
65.78    573
65.8     551
65.82    496
65.84    481
65.86    431
65.88    453
65.9     420
65.92    418
65.94    389
65.96    333
65.98    366
66.0     349
66.02    335
66.04    347
66.06    342
66.08    395
66.1     369
66.12    438
66.14    436
66.16    466
66.18    481
66.2     479
66.22    468
66.24    407
66.26    336
66.28    283
66.3     289
66.32    299
66.34    291
66.36    280
66.38    297
66.4     263
66.42    300
66.44    313
66.46    363
66.48    422
66.5     481
66.52    477
66.54    537
66.56    495
66.58    476
66.6     343
66.62    285
66.64    239
66.66    247
66.68    296
66.7     275
66.72    302
66.74    410
66.76    391
66.78    392
66.8     370
66.82    431
66.84    439
66.86    443
66.88    433
66.9     411
66.92    379
66.94    375
66.96    341
66.98    288
67.0     274
67.02    294
67.04    272
67.06    314
67.08    316
67.1     401
67.12    359
67.14    310
67.16    301
67.18    230
67.2     252
67.22    218
67.24    234
67.26    286
67.28    290
67.3     341
67.32    321
67.34    354
67.36    412
67.38    389
67.4     374
67.42    379
67.44    383
67.46    416
67.48    490
67.5     531
67.52    541
67.54    539
67.56    523
67.58    484
67.6     419
67.62    385
67.64    320
67.66    338
67.68    334
67.7     283
67.72    247
67.74    250
67.76    260
67.78    322
67.8     368
67.82    351
67.84    418
67.86    458
67.88    441
67.9     456
67.92    513
67.94    481
67.96    417
67.98    377
68.0     365
68.02    285
68.04    305
68.06    281
68.08    238
68.1     286
68.12    300
68.14    354
68.16    439
68.18    455
68.2     506
68.22    585
68.24    624
68.26    616
68.28    613
68.3     588
68.32    505
68.34    455
68.36    364
68.38    326
68.4     337
68.42    326
68.44    342
68.46    368
68.48    461
68.5     491
68.52    518
68.54    555
68.56    629
68.58    677
68.6     756
68.62    756
68.64    825
68.66    906
68.68    952
68.7     1003
68.72    1055
68.74    1175
68.76    1276
68.78    1341
68.8     1527
68.82    1665
68.84    1919
68.86    2254
68.88    2563
68.9     2910
68.92    3135
68.94    3345
68.96    3488
68.98    3573
69.0     3536
69.02    3349
69.04    3199
69.06    2914
69.08    2625
69.1     2317
69.12    1918
69.14    1661
69.16    1441
69.18    1271
69.2     1138
69.22    1019
69.24    1068
69.26    1073
69.28    1077
69.3     1055
69.32    954
69.34    916
69.36    904
69.38    795
69.4     713
69.42    655
69.44    578
69.46    469
69.48    421
69.5     364
69.52    351
69.54    343
69.56    384
69.58    400
69.6     416
69.62    441
69.64    389
69.66    441
69.68    479
69.7     517
69.72    522
69.74    496
69.76    469
69.78    440
69.8     423
69.82    424
69.84    450
69.86    490
69.88    455
69.9     411
69.92    444
69.94    480
69.96    466
69.98    473
70.0     504
70.02    551
70.04    553
70.06    558
70.08    513
70.1     513
70.12    547
70.14    527
70.16    525
70.18    602
70.2     643
70.22    686
70.24    690
70.26    714
70.28    718
70.3     747
70.32    760
70.34    759
70.36    767
70.38    896
70.4     981
70.42    1109
70.44    1219
70.46    1332
70.48    1412
70.5     1564
70.52    1690
70.54    1752
70.56    1828
70.58    1853
70.6     1802
70.62    1733
70.64    1567
70.66    1408
70.68    1275
70.7     1173
70.72    1042
70.74    925
70.76    823
70.78    716
70.8     665
70.82    666
70.84    667
70.86    709
70.88    699
70.9     671
70.92    581
70.94    513
70.96    485
70.98    479
71.0     466
71.02    452
71.04    448
71.06    404
71.08    360
71.1     375
71.12    356
71.14    378
71.16    453
71.18    487
71.2     480
71.22    471
71.24    483
71.26    447
71.28    476
71.3     469
71.32    454
71.34    461
71.36    457
71.38    462
71.4     416
71.42    398
71.44    374
71.46    309
71.48    300
71.5     300
71.52    331
71.54    388
71.56    399
71.58    528
71.6     509
71.62    519
71.64    434
71.66    404
71.68    410
71.7     396
71.72    402
71.74    391
71.76    438
71.78    470
71.8     427
71.82    415
71.84    406
71.86    435
71.88    473
71.9     465
71.92    474
71.94    446
71.96    447
71.98    439
72.0     428
72.02    425
72.04    455
72.06    491
72.08    600
72.1     628
72.12    658
72.14    735
72.16    778
72.18    866
72.2     888
72.22    929
72.24    969
72.26    1036
72.28    1053
72.3     1100
72.32    1215
72.34    1347
72.36    1522
72.38    1737
72.4     1976
72.42    2299
72.44    2565
72.46    2880
72.48    3186
72.5     3523
72.52    3802
72.54    4015
72.56    4225
72.58    4288
72.6     4241
72.62    4137
72.64    3890
72.66    3662
72.68    3271
72.7     2930
72.72    2582
72.74    2309
72.76    2067
72.78    1873
72.8     1657
72.82    1500
72.84    1334
72.86    1238
72.88    1071
72.9     996
72.92    916
72.94    858
72.96    811
72.98    747
73.0     697
73.02    660
73.04    657
73.06    731
73.08    715
73.1     710
73.12    689
73.14    668
73.16    651
73.18    579
73.2     581
73.22    600
73.24    628
73.26    668
73.28    614
73.3     605
73.32    544
73.34    623
73.36    647
73.38    682
73.4     811
73.42    971
73.44    1087
73.46    1219
73.48    1247
73.5     1238
73.52    1173
73.54    1128
73.56    935
73.58    863
73.6     775
73.62    683
73.64    637
73.66    606
73.68    550
73.7     491
73.72    483
73.74    538
73.76    558
73.78    656
73.8     613
73.82    605
73.84    596
73.86    513
73.88    491
73.9     459
73.92    474
73.94    567
73.96    640
73.98    719
74.0     704
74.02    782
74.04    823
74.06    838
74.08    913
74.1     920
74.12    877
74.14    943
74.16    943
74.18    995
74.2     1120
74.22    1363
74.24    1540
74.26    1680
74.28    1878
74.3     2006
74.32    2043
74.34    2059
74.36    1948
74.38    1931
74.4     1968
74.42    1906
74.44    1752
74.46    1650
74.48    1585
74.5     1520
74.52    1415
74.54    1320
74.56    1263
74.58    1265
74.6     1259
74.62    1210
74.64    1253
74.66    1357
74.68    1357
74.7     1487
74.72    1526
74.74    1678
74.76    1757
74.78    1788
74.8     1826
74.82    1880
74.84    1994
74.86    1993
74.88    1881
74.9     1910
74.92    1785
74.94    1764
74.96    1581
74.98    1427
75.0     1351
75.02    1188
75.04    1084
75.06    957
75.08    855
75.1     842
75.12    755
75.14    786
75.16    691
75.18    689
75.2     682
75.22    579
75.24    618
75.26    615
75.28    603
75.3     592
75.32    534
75.34    560
75.36    450
75.38    462
75.4     433
75.42    454
75.44    454
75.46    401
75.48    394
75.5     347
75.52    323
75.54    310
75.56    269
75.58    291
75.6     270
75.62    312
75.64    261
75.66    332
75.68    377
75.7     418
75.72    481
75.74    475
75.76    503
75.78    497
75.8     479
75.82    470
75.84    413
75.86    432
75.88    365
75.9     378
75.92    404
75.94    392
75.96    405
75.98    373
76.0     374
76.02    281
76.04    263
76.06    313
76.08    289
76.1     315
76.12    379
76.14    381
76.16    390
76.18    409
76.2     425
76.22    391
76.24    506
76.26    525
76.28    454
76.3     427
76.32    427
76.34    367
76.36    275
76.38    254
76.4     195
76.42    234
76.44    297
76.46    265
76.48    247
76.5     303
76.52    325
76.54    277
76.56    207
76.58    291
76.6     348
76.62    442
76.64    450
76.66    449
76.68    458
76.7     465
76.72    394
76.74    311
76.76    303
76.78    425
76.8     427
76.82    381
76.84    310
76.86    318
76.88    388
76.9     359
76.92    365
76.94    450
76.96    471
76.98    494
77.0     469
77.02    474
77.04    469
77.06    538
77.08    629
77.1     645
77.12    637
77.14    659
77.16    564
77.18    562
77.2     598
77.22    627
77.24    689
77.26    820
77.28    875
77.3     927
77.32    919
77.34    1062
77.36    1220
77.38    1489
77.4     1690
77.42    1898
77.44    2204
77.46    2466
77.48    2681
77.5     2984
77.52    3363
77.54    3781
77.56    4150
77.58    4517
77.6     4652
77.62    4740
77.64    4792
77.66    4664
77.68    4480
77.7     4240
77.72    3991
77.74    3641
77.76    3311
77.78    3003
77.8     2628
77.82    2350
77.84    2147
77.86    1881
77.88    1599
77.9     1349
77.92    1123
77.94    995
77.96    919
77.98    841
78.0     788
78.02    737
78.04    754
78.06    697
78.08    596
78.1     550
78.12    485
78.14    532
78.16    501
78.18    433
78.2     390
78.22    372
78.24    395
78.26    385
78.28    438
78.3     482
78.32    474
78.34    534
78.36    523
78.38    492
78.4     455
78.42    439
78.44    375
78.46    334
78.48    399
78.5     385
78.52    350
78.54    377
78.56    371
78.58    327
78.6     332
78.62    288
78.64    220
78.66    182
78.68    202
78.7     199
78.72    198
78.74    257
78.76    267
78.78    312
78.8     394
78.82    340
78.84    324
78.86    343
78.88    384
78.9     439
78.92    449
78.94    470
78.96    468
78.98    462
79.0     428
79.02    337
79.04    295
79.06    325
79.08    335
79.1     319
79.12    317
79.14    293
79.16    335
79.18    311
79.2     274
79.22    241
79.24    245
79.26    284
79.28    260
79.3     186
79.32    169
79.34    140
79.36    193
79.38    206
79.4     208
79.42    252
79.44    354
79.46    423
79.48    450
79.5     398
79.52    382
79.54    343
79.56    376
79.58    439
79.6     442
79.62    396
79.64    394
79.66    384
79.68    286
79.7     255
79.72    209
79.74    172
79.76    240
79.78    290
79.8     300
79.82    273
79.84    296
79.86    387
79.88    399
79.9     474
79.92    530
79.94    550
79.96    564
79.98    585
80.0     631
80.02    661
80.04    708
80.06    773
80.08    764
80.1     654
80.12    572
80.14    475
80.16    370
80.18    353
80.2     348
80.22    402
80.24    405
80.26    435
80.28    456
80.3     386
80.32    393
80.34    434
80.36    387
80.38    329
80.4     316
80.42    267
80.44    223
80.46    200
80.48    240
80.5     282
80.52    404
80.54    440
80.56    448
80.58    417
80.6     437
80.62    399
80.64    382
80.66    337
80.68    319
80.7     309
80.72    275
80.74    216
80.76    167
80.78    160
80.8     200
80.82    240
80.84    254
80.86    293
80.88    267
80.9     225
80.92    207
80.94    229
80.96    217
80.98    177
81.0     187
81.02    241
81.04    273
81.06    295
81.08    247
81.1     205
81.12    244
81.14    305
81.16    267
81.18    180
81.2     180
81.22    246
81.24    232
81.26    254
81.28    238
81.3     232
81.32    266
81.34    284
81.36    249
81.38    199
81.4     236
81.42    255
81.44    296
81.46    379
81.48    385
81.5     375
81.52    379
81.54    357
81.56    312
81.58    314
81.6     343
81.62    307
81.64    273
81.66    249
81.68    171
81.7     140
81.72    134
81.74    181
81.76    203
81.78    266
81.8     290
81.82    296
81.84    245
81.86    282
81.88    307
81.9     312
81.92    322
81.94    415
81.96    385
81.98    371
82.0     358
82.02    315
82.04    292
82.06    349
82.08    330
82.1     320
82.12    228
82.14    207
82.16    171
82.18    131
82.2     141
82.22    182
82.24    241
82.26    300
82.28    265
82.3     267
82.32    226
82.34    245
82.36    305
82.38    316
82.4     394
82.42    443
82.44    468
82.46    458
82.48    358
82.5     342
82.52    381
82.54    391
82.56    406
82.58    374
82.6     329
82.62    256
82.64    248
82.66    208
82.68    205
82.7     194
82.72    212
82.74    274
82.76    272
82.78    231
82.8     206
82.82    171
82.84    218
82.86    237
82.88    254
82.9     168
82.92    118
82.94    166
82.96    128
82.98    113
83.0     151
83.02    187
83.04    289
83.06    377
83.08    413
83.1     368
83.12    335
83.14    307
83.16    267
83.18    266
83.2     249
83.22    257
83.24    287
83.26    293
83.28    245
83.3     220
83.32    226
83.34    191
83.36    289
83.38    335
83.4     321
83.42    330
83.44    271
83.46    210
83.48    178
83.5     182
83.52    192
83.54    209
83.56    250
83.58    210
83.6     173
83.62    115
83.64    37
83.66    71
83.68    88
83.7     125
83.72    172
83.74    184
83.76    177
83.78    169
83.8     132
83.82    147
83.84    220
83.86    248
83.88    271
83.9     289
83.92    249
83.94    216
83.96    229
83.98    198
84.0     219
84.02    324
84.04    408
84.06    415
84.08    375
84.1     285
84.12    212
84.14    191
84.16    173
84.18    172
84.2     202
84.22    241
84.24    264
84.26    240
84.28    155
84.3     132
84.32    182
84.34    241
84.36    290
84.38    337
84.4     343
84.42    385
84.44    318
84.46    238
84.48    250
84.5     195
84.52    234
84.54    260
84.56    276
84.58    215
84.6     220
84.62    262
84.64    212
84.66    223
84.68    271
84.7     250
84.72    359
84.74    397
84.76    408
84.78    447
84.8     539
84.82    614
84.84    664
84.86    664
84.88    613
84.9     565
84.92    521
84.94    384
84.96    340
84.98    297
85.0     285
85.02    346
85.04    357
85.06    356
85.08    318
85.1     281
85.12    265
85.14    232
85.16    204
85.18    177
85.2     171
85.22    189
85.24    193
85.26    248
85.28    168
85.3     157
85.32    163
85.34    159
85.36    125
85.38    216
85.4     213
85.42    237
85.44    285
85.46    316
85.48    249
85.5     251
85.52    183
85.54    153
85.56    129
85.58    219
85.6     288
85.62    303
85.64    306
85.66    313
85.68    273
85.7     251
85.72    183
85.74    156
85.76    148
85.78    139
85.8     198
85.82    163
85.84    144
85.86    138
85.88    144
85.9     236
85.92    280
85.94    339
85.96    391
85.98    354
86.0     400
86.02    378
86.04    442
86.06    453
86.08    512
86.1     604
86.12    634
86.14    654
86.16    617
86.18    565
86.2     543
86.22    467
86.24    477
86.26    448
86.28    493
86.3     501
86.32    488
86.34    467
86.36    479
86.38    545
86.4     576
86.42    622
86.44    668
86.46    761
86.48    841
86.5     864
86.52    881
86.54    872
86.56    893
86.58    922
86.6     929
86.62    955
86.64    923
86.66    914
86.68    858
86.7     732
86.72    599
86.74    480
86.76    394
86.78    349
86.8     305
86.82    300
86.84    267
86.86    284
86.88    284
86.9     219
86.92    116
86.94    81
86.96    125
86.98    185
87.0     245
87.02    267
87.04    218
87.06    270
87.08    319
87.1     290
87.12    215
87.14    208
87.16    282
87.18    347
87.2     355
87.22    336
87.24    249
87.26    267
87.28    309
87.3     305
87.32    361
87.34    343
87.36    315
87.38    335
87.4     300
87.42    313
87.44    260
87.46    246
87.48    269
87.5     258
87.52    328
87.54    328
87.56    330
87.58    354
87.6     313
87.62    339
87.64    344
87.66    260
87.68    213
87.7     143
87.72    189
87.74    212
87.76    234
87.78    271
87.8     161
87.82    187
87.84    219
87.86    219
87.88    201
87.9     163
87.92    174
87.94    210
87.96    204
87.98    188
88.0     91
88.02    145
88.04    173
88.06    203
88.08    211
88.1     213
88.12    241
88.14    265
88.16    251
88.18    299
88.2     335
88.22    343
88.24    337
88.26    331
88.28    358
88.3     313
88.32    293
88.34    242
88.36    225
88.38    244
88.4     219
88.42    244
88.44    272
88.46    251
88.48    225
88.5     207
88.52    207
88.54    258
88.56    213
88.58    237
88.6     222
88.62    277
88.64    309
88.66    268
88.68    257
88.7     234
88.72    210
88.74    286
88.76    219
88.78    238
88.8     236
88.82    224
88.84    275
88.86    254
88.88    346
88.9     306
88.92    274
88.94    271
88.96    270
88.98    281
89.0     269
89.02    215
89.04    291
89.06    283
89.08    374
89.1     356
89.12    307
89.14    316
89.16    285
89.18    285
89.2     277
89.22    261
89.24    254
89.26    164
89.28    200
89.3     161
89.32    76
89.34    116
89.36    94
89.38    155
89.4     176
89.42    174
89.44    158
89.46    121
89.48    153
89.5     118
89.52    122
89.54    254
89.56    285
89.58    372
89.6     441
89.62    470
89.64    439
89.66    394
89.68    344
89.7     337
89.72    336
89.74    375
89.76    350
89.78    341
89.8     351
89.82    347
89.84    356
89.86    324
89.88    267
89.9     268
89.92    332
89.94    333
89.96    390
89.98    398
90.0     399
