?
5.0      596
5.02     596
5.04     768
5.06     777
5.08     798
5.1      814
5.12     823
5.14     830
5.16     856
5.18     877
5.2      844
5.22     836
5.24     838
5.26     839
5.28     811
5.3      817
5.32     794
5.34     773
5.36     785
5.38     799
5.4      795
5.42     806
5.44     849
5.46     882
5.48     905
5.5      908
5.52     879
5.54     893
5.56     890
5.58     857
5.6      868
5.62     836
5.64     869
5.66     895
5.68     887
5.7      864
5.72     871
5.74     897
5.76     876
5.78     875
5.8      880
5.82     863
5.84     905
5.86     924
5.88     945
5.9      916
5.92     904
5.94     891
5.96     874
5.98     873
6.0      846
6.02     870
6.04     910
6.06     962
6.08     995
6.1      930
6.12     971
6.14     952
6.16     950
6.18     928
6.2      915
6.22     955
6.24     994
6.26     1029
6.28     1031
6.3      991
6.32     982
6.34     950
6.36     899
6.38     855
6.4      848
6.42     849
6.44     847
6.46     887
6.48     914
6.5      883
6.52     905
6.54     959
6.56     907
6.58     919
6.6      931
6.62     876
6.64     880
6.66     921
6.68     928
6.7      954
6.72     1005
6.74     1001
6.76     949
6.78     943
6.8      919
6.82     904
6.84     914
6.86     925
6.88     896
6.9      926
6.92     869
6.94     861
6.96     848
6.98     857
7.0      911
7.02     955
7.04     954
7.06     948
7.08     916
7.1      895
7.12     841
7.14     835
7.16     827
7.18     896
7.2      920
7.22     931
7.24     914
7.26     897
7.28     908
7.3      889
7.32     901
7.34     874
7.36     896
7.38     948
7.4      903
7.42     915
7.44     911
7.46     900
7.48     873
7.5      892
7.52     864
7.54     859
7.56     843
7.58     884
7.6      890
7.62     899
7.64     871
7.66     841
7.68     826
7.7      809
7.72     745
7.74     775
7.76     777
7.78     822
7.8      855
7.82     803
7.84     814
7.86     820
7.88     846
7.9      847
7.92     825
7.94     867
7.96     842
7.98     871
8.0      879
8.02     857
8.04     860
8.06     864
8.08     854
8.1      870
8.12     812
8.14     812
8.16     789
8.18     841
8.2      884
8.22     847
8.24     863
8.26     879
8.28     865
8.3      879
8.32     824
8.34     803
8.36     830
8.38     861
8.4      908
8.42     846
8.44     899
8.46     873
8.48     906
8.5      866
8.52     831
8.54     791
8.56     804
8.58     815
8.6      805
8.62     762
8.64     763
8.66     741
8.68     765
8.7      758
8.72     792
8.74     822
8.76     861
8.78     894
8.8      885
8.82     843
8.84     820
8.86     780
8.88     746
8.9      720
8.92     717
8.94     744
8.96     732
8.98     776
9.0      756
9.02     757
9.04     790
9.06     812
9.08     764
9.1      747
9.12     747
9.14     700
9.16     706
9.18     675
9.2      690
9.22     674
9.24     700
9.26     671
9.28     615
9.3      640
9.32     667
9.34     655
9.36     706
9.38     690
9.4      742
9.42     716
9.44     709
9.46     671
9.48     615
9.5      663
9.52     645
9.54     665
9.56     627
9.58     617
9.6      638
9.62     650
9.64     638
9.66     646
9.68     628
9.7      669
9.72     628
9.74     619
9.76     546
9.78     571
9.8      523
9.82     536
9.84     564
9.86     532
9.88     580
9.9      554
9.92     537
9.94     552
9.96     569
9.98     577
10.0     585
10.02    690
10.04    662
10.06    626
10.08    650
10.1     617
10.12    640
10.14    679
10.16    641
10.18    654
10.2     700
10.22    649
10.24    581
10.26    590
10.28    571
10.3     599
10.32    679
10.34    667
10.36    654
10.38    664
10.4     693
10.42    611
10.44    622
10.46    604
10.48    555
10.5     534
10.52    624
10.54    589
10.56    573
10.58    656
10.6     712
10.62    698
10.64    701
10.66    648
10.68    578
10.7     559
10.72    582
10.74    568
10.76    592
10.78    667
10.8     676
10.82    708
10.84    702
10.86    678
10.88    675
10.9     675
10.92    621
10.94    592
10.96    665
10.98    611
11.0     645
11.02    698
11.04    695
11.06    671
11.08    711
11.1     663
11.12    620
11.14    577
11.16    649
11.18    631
11.2     654
11.22    676
11.24    652
11.26    631
11.28    690
11.3     673
11.32    718
11.34    738
11.36    779
11.38    787
11.4     766
11.42    772
11.44    773
11.46    787
11.48    804
11.5     772
11.52    751
11.54    726
11.56    744
11.58    696
11.6     681
11.62    740
11.64    739
11.66    816
11.68    790
11.7     755
11.72    784
11.74    807
11.76    825
11.78    834
11.8     831
11.82    875
11.84    842
11.86    897
11.88    853
11.9     811
11.92    794
11.94    783
11.96    743
11.98    763
12.0     737
12.02    715
12.04    728
12.06    827
12.08    834
12.1     846
12.12    865
12.14    922
12.16    946
12.18    925
12.2     905
12.22    896
12.24    933
12.26    946
12.28    921
12.3     926
12.32    924
12.34    909
12.36    895
12.38    867
12.4     882
12.42    884
12.44    891
12.46    909
12.48    908
12.5     898
12.52    919
12.54    927
12.56    951
12.58    991
12.6     1013
12.62    990
12.64    1012
12.66    1011
12.68    928
12.7     859
12.72    868
12.74    806
12.76    794
12.78    830
12.8     904
12.82    936
12.84    1064
12.86    1099
12.88    1114
12.9     1126
12.92    1093
12.94    973
12.96    919
12.98    898
13.0     907
13.02    858
13.04    941
13.06    969
13.08    998
13.1     1011
13.12    971
13.14    951
13.16    986
13.18    993
13.2     973
13.22    997
13.24    1024
13.26    1008
13.28    978
13.3     990
13.32    984
13.34    957
13.36    950
13.38    955
13.4     956
13.42    1022
13.44    998
13.46    1021
13.48    1072
13.5     1077
13.52    1047
13.54    1015
13.56    978
13.58    1015
13.6     1074
13.62    1089
13.64    1094
13.66    1133
13.68    1196
13.7     1178
13.72    1130
13.74    1125
13.76    1093
13.78    1130
13.8     1111
13.82    1069
13.84    1040
13.86    1045
13.88    1138
13.9     1139
13.92    1113
13.94    1133
13.96    1136
13.98    1111
14.0     1062
14.02    1064
14.04    988
14.06    1017
14.08    1079
14.1     1033
14.12    1076
14.14    1143
14.16    1093
14.18    1048
14.2     1135
14.22    1121
14.24    1023
14.26    1056
14.28    1106
14.3     1093
14.32    1133
14.34    1192
14.36    1115
14.38    1090
14.4     1160
14.42    1132
14.44    1055
14.46    1043
14.48    1077
14.5     1056
14.52    1020
14.54    1061
14.56    1024
14.58    997
14.6     1065
14.62    1071
14.64    1030
14.66    1024
14.68    1061
14.7     1054
14.72    1071
14.74    1070
14.76    1047
14.78    1049
14.8     1121
14.82    1155
14.84    1149
14.86    1139
14.88    1142
14.9     1192
14.92    1185
14.94    1135
14.96    1204
14.98    1284
15.0     1265
15.02    1262
15.04    1227
15.06    1184
15.08    1123
15.1     1121
15.12    1077
15.14    1104
15.16    1178
15.18    1162
15.2     1130
15.22    1190
15.24    1238
15.26    1184
15.28    1153
15.3     1104
15.32    1111
15.34    1091
15.36    1025
15.38    998
15.4     1018
15.42    1008
15.44    1016
15.46    1028
15.48    1074
15.5     1059
15.52    1117
15.54    1137
15.56    1165
15.58    1214
15.6     1177
15.62    1135
15.64    1132
15.66    1220
15.68    1288
15.7     1233
15.72    1207
15.74    1222
15.76    1284
15.78    1290
15.8     1217
15.82    1239
15.84    1322
15.86    1433
15.88    1493
15.9     1482
15.92    1516
15.94    1627
15.96    1726
15.98    1772
16.0     1811
16.02    2016
16.04    2152
16.06    2227
16.08    2340
16.1     2491
16.12    2689
16.14    2975
16.16    3226
16.18    3469
16.2     3820
16.22    4356
16.24    4814
16.26    5372
16.28    6120
16.3     7027
16.32    8199
16.34    9698
16.36    11481
16.38    13520
16.4     16208
16.42    19525
16.44    23189
16.46    27343
16.48    31724
16.5     35569
16.52    38448
16.54    39862
16.56    39349
16.58    36766
16.6     32684
16.62    27625
16.64    22191
16.66    17232
16.68    13119
16.7     9818
16.72    7533
16.74    6021
16.76    4999
16.78    4227
16.8     3656
16.82    3255
16.84    2949
16.86    2741
16.88    2522
16.9     2290
16.92    2161
16.94    2029
16.96    1867
16.98    1760
17.0     1706
17.02    1604
17.04    1510
17.06    1486
17.08    1447
17.1     1469
17.12    1504
17.14    1444
17.16    1380
17.18    1371
17.2     1324
17.22    1154
17.24    1073
17.26    1102
17.28    1165
17.3     1155
17.32    1126
17.34    1098
17.36    1127
17.38    1093
17.4     1005
17.42    893
17.44    930
17.46    1020
17.48    1017
17.5     911
17.52    949
17.54    992
17.56    1001
17.58    949
17.6     918
17.62    906
17.64    882
17.66    848
17.68    743
17.7     787
17.72    853
17.74    781
17.76    746
17.78    767
17.8     842
17.82    916
17.84    893
17.86    840
17.88    843
17.9     916
17.92    900
17.94    733
17.96    706
17.98    784
18.0     810
18.02    764
18.04    745
18.06    698
18.08    715
18.1     715
18.12    708
18.14    644
18.16    701
18.18    783
18.2     772
18.22    744
18.24    786
18.26    766
18.28    802
18.3     815
18.32    764
18.34    735
18.36    716
18.38    749
18.4     743
18.42    758
18.44    736
18.46    686
18.48    688
18.5     695
18.52    688
18.54    667
18.56    630
18.58    651
18.6     697
18.62    736
18.64    692
18.66    668
18.68    670
18.7     699
18.72    688
18.74    674
18.76    665
18.78    679
18.8     723
18.82    695
18.84    655
18.86    694
18.88    649
18.9     520
18.92    507
18.94    583
18.96    639
18.98    641
19.0     639
19.02    607
19.04    550
19.06    573
19.08    514
19.1     430
19.12    507
19.14    543
19.16    540
19.18    529
19.2     580
19.22    572
19.24    535
19.26    570
19.28    588
19.3     554
19.32    556
19.34    536
19.36    535
19.38    516
19.4     547
19.42    516
19.44    476
19.46    484
19.48    482
19.5     454
19.52    403
19.54    435
19.56    511
19.58    502
19.6     567
19.62    582
19.64    572
19.66    608
19.68    558
19.7     492
19.72    412
19.74    424
19.76    428
19.78    369
19.8     424
19.82    447
19.84    465
19.86    461
19.88    415
19.9     399
19.92    411
19.94    458
19.96    450
19.98    426
20.0     497
20.02    522
20.04    546
20.06    536
20.08    513
20.1     514
20.12    547
20.14    551
20.16    527
20.18    448
20.2     428
20.22    438
20.24    444
20.26    451
20.28    425
20.3     491
20.32    530
20.34    486
20.36    468
20.38    401
20.4     447
20.42    496
20.44    474
20.46    492
20.48    472
20.5     513
20.52    515
20.54    517
20.56    498
20.58    478
20.6     567
20.62    574
20.64    574
20.66    544
20.68    498
20.7     435
20.72    407
20.74    415
20.76    321
20.78    338
20.8     469
20.82    543
20.84    602
20.86    593
20.88    545
20.9     505
20.92    572
20.94    635
20.96    555
20.98    533
21.0     537
21.02    596
21.04    639
21.06    622
21.08    534
21.1     507
21.12    515
21.14    581
21.16    487
21.18    435
21.2     388
21.22    420
21.24    474
21.26    514
21.28    567
21.3     514
21.32    518
21.34    524
21.36    514
21.38    486
21.4     436
21.42    363
21.44    314
21.46    336
21.48    350
21.5     315
21.52    389
21.54    381
21.56    470
21.58    455
21.6     437
21.62    402
21.64    352
21.66    350
21.68    324
21.7     378
21.72    454
21.74    438
21.76    421
21.78    373
21.8     285
21.82    354
21.84    350
21.86    382
21.88    377
21.9     409
21.92    439
21.94    452
21.96    445
21.98    380
22.0     346
22.02    404
22.04    405
22.06    388
22.08    328
22.1     313
22.12    335
22.14    379
22.16    372
22.18    345
22.2     367
22.22    447
22.24    445
22.26    401
22.28    359
22.3     371
22.32    348
22.34    362
22.36    351
22.38    385
22.4     380
22.42    458
22.44    409
22.46    421
22.48    379
22.5     357
22.52    264
22.54    306
22.56    390
22.58    444
22.6     456
22.62    445
22.64    386
22.66    374
22.68    316
22.7     302
22.72    246
22.74    330
22.76    397
22.78    349
22.8     348
22.82    302
22.84    347
22.86    322
22.88    306
22.9     304
22.92    274
22.94    279
22.96    272
22.98    259
23.0     296
23.02    322
23.04    371
23.06    341
23.08    339
23.1     290
23.12    337
23.14    334
23.16    359
23.18    310
23.2     287
23.22    272
23.24    328
23.26    392
23.28    387
23.3     329
23.32    284
23.34    262
23.36    252
23.38    225
23.4     225
23.42    236
23.44    316
23.46    372
23.48    384
23.5     319
23.52    289
23.54    363
23.56    411
23.58    436
23.6     379
23.62    342
23.64    316
23.66    340
23.68    343
23.7     264
23.72    264
23.74    276
23.76    330
23.78    369
23.8     357
23.82    313
23.84    344
23.86    349
23.88    345
23.9     278
23.92    313
23.94    330
23.96    304
23.98    260
24.0     193
24.02    190
24.04    256
24.06    262
24.08    228
24.1     235
24.12    273
24.14    322
24.16    263
24.18    228
24.2     243
24.22    332
24.24    374
24.26    386
24.28    315
24.3     305
24.32    332
24.34    423
24.36    359
24.38    347
24.4     406
24.42    412
24.44    432
24.46    408
24.48    383
24.5     329
24.52    341
24.54    326
24.56    249
24.58    230
24.6     262
24.62    308
24.64    351
24.66    346
24.68    351
24.7     372
24.72    396
24.74    330
24.76    262
24.78    201
24.8     222
24.82    275
24.84    222
24.86    191
24.88    169
24.9     311
24.92    396
24.94    391
24.96    350
24.98    327
25.0     376
25.02    371
25.04    292
25.06    243
25.08    217
25.1     296
25.12    335
25.14    303
25.16    263
25.18    270
25.2     301
25.22    260
25.24    178
25.26    219
25.28    262
25.3     296
25.32    243
25.34    211
25.36    217
25.38    250
25.4     304
25.42    332
25.44    330
25.46    391
25.48    398
25.5     382
25.52    290
25.54    298
25.56    300
25.58    296
25.6     290
25.62    262
25.64    233
25.66    247
25.68    273
25.7     364
25.72    419
25.74    454
25.76    444
25.78    401
25.8     344
25.82    290
25.84    260
25.86    264
25.88    293
25.9     340
25.92    340
25.94    306
25.96    262
25.98    248
26.0     269
26.02    323
26.04    331
26.06    249
26.08    229
26.1     225
26.12    237
26.14    217
26.16    179
26.18    233
26.2     327
26.22    455
26.24    479
26.26    402
26.28    382
26.3     326
26.32    278
26.34    215
26.36    164
26.38    183
26.4     200
26.42    282
26.44    298
26.46    331
26.48    310
26.5     220
26.52    167
26.54    113
26.56    128
26.58    178
26.6     181
26.62    252
26.64    264
26.66    330
26.68    306
26.7     264
26.72    281
26.74    295
26.76    398
26.78    396
26.8     343
26.82    278
26.84    189
26.86    104
26.88    61
26.9     69
26.92    200
26.94    271
26.96    376
26.98    352
27.0     360
27.02    314
27.04    269
27.06    251
27.08    235
27.1     222
27.12    226
27.14    177
27.16    145
27.18    128
27.2     156
27.22    173
27.24    238
27.26    349
27.28    396
27.3     444
27.32    392
27.34    309
27.36    263
27.38    175
27.4     145
27.42    142
27.44    185
27.46    268
27.48    339
27.5     384
27.52    359
27.54    333
27.56    366
27.58    315
27.6     376
27.62    378
27.64    364
27.66    330
27.68    268
27.7     209
27.72    262
27.74    316
27.76    343
27.78    322
27.8     364
27.82    321
27.84    290
27.86    198
27.88    127
27.9     179
27.92    257
27.94    286
27.96    289
27.98    299
28.0     365
28.02    327
28.04    326
28.06    218
28.08    139
28.1     191
28.12    123
28.14    176
28.16    261
28.18    332
28.2     407
28.22    407
28.24    454
28.26    368
28.28    289
28.3     277
28.32    236
28.34    289
28.36    300
28.38    266
28.4     240
28.42    268
28.44    321
28.46    298
28.48    259
28.5     221
28.52    216
28.54    192
28.56    161
28.58    142
28.6     171
28.62    227
28.64    293
28.66    265
28.68    212
28.7     209
28.72    231
28.74    266
28.76    318
28.78    334
28.8     325
28.82    305
28.84    290
28.86    247
28.88    206
28.9     229
28.92    206
28.94    237
28.96    229
28.98    180
29.0     148
29.02    172
29.04    270
29.06    359
29.08    397
29.1     384
29.12    347
29.14    318
29.16    334
29.18    314
29.2     238
29.22    258
29.24    266
29.26    265
29.28    263
29.3     269
29.32    270
29.34    252
29.36    286
29.38    275
29.4     194
29.42    162
29.44    147
29.46    197
29.48    216
29.5     272
29.52    284
29.54    263
29.56    240
29.58    258
29.6     250
29.62    262
29.64    308
29.66    330
29.68    325
29.7     320
29.72    396
29.74    321
29.76    270
29.78    326
29.8     306
29.82    350
29.84    349
29.86    326
29.88    303
29.9     262
29.92    278
29.94    212
29.96    202
29.98    250
30.0     291
30.02    345
30.04    364
30.06    355
30.08    274
30.1     258
30.12    230
30.14    270
30.16    352
30.18    391
30.2     509
30.22    466
30.24    428
30.26    391
30.28    311
30.3     293
30.32    294
30.34    330
30.36    387
30.38    341
30.4     336
30.42    295
30.44    313
30.46    332
30.48    329
30.5     315
30.52    332
30.54    313
30.56    309
30.58    245
30.6     211
30.62    239
30.64    257
30.66    266
30.68    291
30.7     331
30.72    396
30.74    380
30.76    398
30.78    355
30.8     265
30.82    249
30.84    223
30.86    255
30.88    324
30.9     417
30.92    447
30.94    363
30.96    351
30.98    286
31.0     189
31.02    218
31.04    199
31.06    167
31.08    212
31.1     201
31.12    153
31.14    202
31.16    257
31.18    323
31.2     354
31.22    346
31.24    319
31.26    265
31.28    240
31.3     225
31.32    215
31.34    354
31.36    390
31.38    381
31.4     373
31.42    293
31.44    258
31.46    210
31.48    184
31.5     245
31.52    271
31.54    383
31.56    462
31.58    501
31.6     526
31.62    563
31.64    543
31.66    509
31.68    495
31.7     340
31.72    210
31.74    152
31.76    116
31.78    137
31.8     137
31.82    209
31.84    249
31.86    317
31.88    358
31.9     293
31.92    297
31.94    318
31.96    305
31.98    349
32.0     351
32.02    361
32.04    409
32.06    449
32.08    483
32.1     560
32.12    582
32.14    575
32.16    549
32.18    522
32.2     525
32.22    586
32.24    626
32.26    691
32.28    712
32.3     773
32.32    798
32.34    728
32.36    707
32.38    705
32.4     657
32.42    640
32.44    582
32.46    494
32.48    431
32.5     428
32.52    387
32.54    412
32.56    474
32.58    500
32.6     485
32.62    504
32.64    483
32.66    466
32.68    468
32.7     437
32.72    400
32.74    377
32.76    383
32.78    329
32.8     361
32.82    414
32.84    453
32.86    539
32.88    565
32.9     580
32.92    577
32.94    526
32.96    538
32.98    509
33.0     540
33.02    572
33.04    688
33.06    795
33.08    827
33.1     900
33.12    917
33.14    869
33.16    818
33.18    854
33.2     967
33.22    1147
33.24    1348
33.26    1471
33.28    1595
33.3     1908
33.32    2189
33.34    2580
33.36    3142
33.38    3827
33.4     4577
33.42    5298
33.44    5992
33.46    6695
33.48    7295
33.5     7852
33.52    8133
33.54    8209
33.56    7941
33.58    7414
33.6     6621
33.62    5680
33.64    4770
33.66    3963
33.68    3260
33.7     2756
33.72    2321
33.74    1997
33.76    1704
33.78    1469
33.8     1281
33.82    1094
33.84    916
33.86    836
33.88    776
33.9     756
33.92    739
33.94    758
33.96    757
33.98    682
34.0     732
34.02    693
34.04    652
34.06    615
34.08    554
34.1     479
34.12    466
34.14    464
34.16    502
34.18    558
34.2     654
34.22    653
34.24    665
34.26    627
34.28    575
34.3     491
34.32    503
34.34    516
34.36    590
34.38    652
34.4     671
34.42    644
34.44    632
34.46    624
34.48    551
34.5     457
34.52    411
34.54    380
34.56    368
34.58    413
34.6     485
34.62    583
34.64    633
34.66    645
34.68    658
34.7     557
34.72    516
34.74    535
34.76    474
34.78    507
34.8     588
34.82    669
34.84    676
34.86    830
34.88    982
34.9     1133
34.92    1362
34.94    1546
34.96    1762
34.98    2109
35.0     2563
35.02    3298
35.04    4304
35.06    5529
35.08    6735
35.1     7900
35.12    8749
35.14    9183
35.16    9215
35.18    8811
35.2     8044
35.22    7197
35.24    6257
35.26    5207
35.28    4278
35.3     3492
35.32    2796
35.34    2246
35.36    1891
35.38    1636
35.4     1529
35.42    1419
35.44    1366
35.46    1229
35.48    1167
35.5     1090
35.52    993
35.54    864
35.56    879
35.58    801
35.6     809
35.62    741
35.64    723
35.66    651
35.68    643
35.7     589
35.72    562
35.74    537
35.76    602
35.78    599
35.8     653
35.82    681
35.84    674
35.86    670
35.88    676
35.9     603
35.92    606
35.94    655
35.96    623
35.98    644
36.0     751
36.02    799
36.04    852
36.06    933
36.08    972
36.1     1046
36.12    1121
36.14    1174
36.16    1221
36.18    1380
36.2     1568
36.22    1721
36.24    1963
36.26    2236
36.28    2616
36.3     3152
36.32    3772
36.34    4630
36.36    5785
36.38    7336
36.4     9257
36.42    11471
36.44    13822
36.46    15960
36.48    17651
36.5     18549
36.52    18491
36.54    17554
36.56    15896
36.58    13847
36.6     11653
36.62    9444
36.64    7559
36.66    6018
36.68    4729
36.7     3758
36.72    3054
36.74    2511
36.76    2158
36.78    1894
36.8     1724
36.82    1533
36.84    1434
36.86    1355
36.88    1210
36.9     1120
36.92    1078
36.94    1019
36.96    994
36.98    944
37.0     1006
37.02    1042
37.04    1011
37.06    959
37.08    837
37.1     721
37.12    674
37.14    640
37.16    625
37.18    693
37.2     812
37.22    870
37.24    893
37.26    886
37.28    926
37.3     928
37.32    986
37.34    998
37.36    1019
37.38    993
37.4     960
37.42    882
37.44    817
37.46    693
37.48    653
37.5     594
37.52    616
37.54    617
37.56    611
37.58    577
37.6     644
37.62    654
37.64    685
37.66    588
37.68    551
37.7     512
37.72    526
37.74    570
37.76    639
37.78    734
37.8     861
37.82    961
37.84    975
37.86    862
37.88    764
37.9     597
37.92    500
37.94    422
37.96    403
37.98    450
38.0     547
38.02    658
38.04    663
38.06    655
38.08    639
38.1     557
38.12    547
38.14    524
38.16    518
38.18    502
38.2     496
38.22    441
38.24    402
38.26    356
38.28    376
38.3     379
38.32    399
38.34    439
38.36    494
38.38    448
38.4     458
38.42    419
38.44    411
38.46    375
38.48    388
38.5     359
38.52    345
38.54    416
38.56    455
38.58    508
38.6     570
38.62    581
38.64    547
38.66    505
38.68    439
38.7     340
38.72    355
38.74    380
38.76    352
38.78    426
38.8     510
38.82    525
38.84    486
38.86    452
38.88    405
38.9     313
38.92    343
38.94    324
38.96    387
38.98    440
39.0     565
39.02    575
39.04    570
39.06    487
39.08    403
39.1     295
39.12    297
39.14    309
39.16    442
39.18    521
39.2     605
39.22    652
39.24    683
39.26    569
39.28    483
39.3     399
39.32    353
39.34    293
39.36    343
39.38    380
39.4     418
39.42    442
39.44    523
39.46    510
39.48    438
39.5     378
39.52    347
39.54    280
39.56    287
39.58    331
39.6     439
39.62    457
39.64    577
39.66    603
39.68    550
39.7     585
39.72    613
39.74    591
39.76    596
39.78    583
39.8     557
39.82    540
39.84    548
39.86    519
39.88    480
39.9     503
39.92    525
39.94    563
39.96    555
39.98    524
40.0     521
40.02    565
40.04    562
40.06    599
40.08    623
40.1     684
40.12    756
40.14    889
40.16    907
40.18    900
40.2     940
40.22    896
40.24    840
40.26    839
40.28    787
40.3     745
40.32    765
40.34    852
40.36    824
40.38    778
40.4     860
40.42    858
40.44    816
40.46    872
40.48    921
40.5     887
40.52    956
40.54    1095
40.56    1156
40.58    1140
40.6     1173
40.62    1147
40.64    1047
40.66    1065
40.68    1106
40.7     1065
40.72    1179
40.74    1294
40.76    1372
40.78    1362
40.8     1376
40.82    1410
40.84    1380
40.86    1398
40.88    1453
40.9     1538
40.92    1654
40.94    1699
40.96    1845
40.98    1964
41.0     2069
41.02    2221
41.04    2309
41.06    2357
41.08    2407
41.1     2535
41.12    2627
41.14    2791
41.16    3078
41.18    3422
41.2     3825
41.22    4333
41.24    4915
41.26    5552
41.28    6372
41.3     7480
41.32    8789
41.34    10493
41.36    12584
41.38    15324
41.4     18768
41.42    23107
41.44    28410
41.46    34785
41.48    41840
41.5     48936
41.52    55282
41.54    60030
41.56    62412
41.58    62096
41.6     58964
41.62    53621
41.64    46814
41.66    39571
41.68    32517
41.7     26193
41.72    20916
41.74    16747
41.76    13560
41.78    11110
41.8     9113
41.82    7624
41.84    6498
41.86    5529
41.88    4807
41.9     4244
41.92    3726
41.94    3394
41.96    3172
41.98    3038
42.0     2840
42.02    2698
42.04    2541
42.06    2291
42.08    2070
42.1     1844
42.12    1665
42.14    1519
42.16    1547
42.18    1661
42.2     1698
42.22    1720
42.24    1669
42.26    1623
42.28    1446
42.3     1276
42.32    1188
42.34    1058
42.36    1076
42.38    1080
42.4     1094
42.42    1141
42.44    1164
42.46    1218
42.48    1134
42.5     1104
42.52    1104
42.54    1052
42.56    1017
42.58    982
42.6     1015
42.62    1000
42.64    997
42.66    974
42.68    933
42.7     845
42.72    882
42.74    866
42.76    894
42.78    903
42.8     935
42.82    894
42.84    847
42.86    871
42.88    825
42.9     760
42.92    737
42.94    730
42.96    757
42.98    762
43.0     828
43.02    843
43.04    878
43.06    969
43.08    943
43.1     941
43.12    942
43.14    986
43.16    987
43.18    968
43.2     992
43.22    878
43.24    804
43.26    711
43.28    628
43.3     580
43.32    636
43.34    711
43.36    741
43.38    794
43.4     857
43.42    815
43.44    773
43.46    700
43.48    639
43.5     602
43.52    537
43.54    595
43.56    563
43.58    616
43.6     660
43.62    661
43.64    619
43.66    604
43.68    645
43.7     670
43.72    683
43.74    837
43.76    881
43.78    896
43.8     912
43.82    860
43.84    724
43.86    572
43.88    475
43.9     353
43.92    317
43.94    400
43.96    454
43.98    537
44.0     665
44.02    715
44.04    719
44.06    619
44.08    577
44.1     533
44.12    497
44.14    474
44.16    460
44.18    487
44.2     530
44.22    524
44.24    594
44.26    594
44.28    607
44.3     682
44.32    665
44.34    613
44.36    558
44.38    517
44.4     498
44.42    450
44.44    532
44.46    563
44.48    557
44.5     608
44.52    643
44.54    654
44.56    616
44.58    614
44.6     626
44.62    617
44.64    618
44.66    570
44.68    552
44.7     537
44.72    595
44.74    649
44.76    714
44.78    790
44.8     834
44.82    861
44.84    860
44.86    846
44.88    910
44.9     983
44.92    1114
44.94    1296
44.96    1494
44.98    1650
45.0     1733
45.02    1825
45.04    1841
45.06    1827
45.08    1705
45.1     1597
45.12    1472
45.14    1355
45.16    1275
45.18    1126
45.2     1011
45.22    960
45.24    947
45.26    932
45.28    775
45.3     783
45.32    747
45.34    665
45.36    598
45.38    518
45.4     549
45.42    518
45.44    595
45.46    639
45.48    633
45.5     724
45.52    700
45.54    654
45.56    565
45.58    532
45.6     533
45.62    449
45.64    494
45.66    484
45.68    534
45.7     586
45.72    595
45.74    634
45.76    664
45.78    747
45.8     768
45.82    711
45.84    729
45.86    636
45.88    559
45.9     431
45.92    403
45.94    396
45.96    376
45.98    439
46.0     430
46.02    473
46.04    467
46.06    422
46.08    433
46.1     399
46.12    460
46.14    423
46.16    453
46.18    577
46.2     566
46.22    575
46.24    535
46.26    589
46.28    572
46.3     487
46.32    489
46.34    454
46.36    430
46.38    369
46.4     335
46.42    368
46.44    424
46.46    494
46.48    532
46.5     639
46.52    716
46.54    673
46.56    521
46.58    462
46.6     437
46.62    399
46.64    335
46.66    377
46.68    449
46.7     538
46.72    590
46.74    597
46.76    603
46.78    645
46.8     619
46.82    584
46.84    514
46.86    469
46.88    380
46.9     321
46.92    301
46.94    270
46.96    297
46.98    364
47.0     419
47.02    478
47.04    467
47.06    460
47.08    409
47.1     388
47.12    371
47.14    365
47.16    449
47.18    498
47.2     579
47.22    650
47.24    662
47.26    708
47.28    693
47.3     697
47.32    622
47.34    548
47.36    519
47.38    472
47.4     424
47.42    390
47.44    416
47.46    497
47.48    539
47.5     529
47.52    504
47.54    472
47.56    440
47.58    419
47.6     330
47.62    352
47.64    367
47.66    434
47.68    476
47.7     532
47.72    641
47.74    659
47.76    707
47.78    706
47.8     663
47.82    685
47.84    576
47.86    580
47.88    482
47.9     468
47.92    487
47.94    478
47.96    517
47.98    553
48.0     600
48.02    676
48.04    670
48.06    729
48.08    658
48.1     631
48.12    596
48.14    550
48.16    483
48.18    444
48.2     435
48.22    455
48.24    422
48.26    496
48.28    548
48.3     575
48.32    608
48.34    662
48.36    644
48.38    628
48.4     573
48.42    566
48.44    481
48.46    486
48.48    510
48.5     552
48.52    685
48.54    685
48.56    659
48.58    662
48.6     562
48.62    567
48.64    453
48.66    411
48.68    461
48.7     535
48.72    632
48.74    554
48.76    491
48.78    482
48.8     376
48.82    320
48.84    256
48.86    273
48.88    356
48.9     433
48.92    530
48.94    587
48.96    637
48.98    666
49.0     589
49.02    571
49.04    503
49.06    473
49.08    409
49.1     377
49.12    380
49.14    400
49.16    471
49.18    526
49.2     530
49.22    596
49.24    586
49.26    628
49.28    587
49.3     546
49.32    474
49.34    413
49.36    359
49.38    368
49.4     336
49.42    426
49.44    493
49.46    565
49.48    622
49.5     665
49.52    698
49.54    699
49.56    633
49.58    610
49.6     541
49.62    569
49.64    458
49.66    408
49.68    392
49.7     405
49.72    433
49.74    444
49.76    458
49.78    515
49.8     507
49.82    529
49.84    457
49.86    473
49.88    419
49.9     390
49.92    352
49.94    356
49.96    411
49.98    503
50.0     518
50.02    551
50.04    561
50.06    558
50.08    519
50.1     497
50.12    437
50.14    450
50.16    442
50.18    424
50.2     376
50.22    373
50.24    367
50.26    400
50.28    403
50.3     416
50.32    464
50.34    520
50.36    509
50.38    523
50.4     482
50.42    511
50.44    544
50.46    480
50.48    429
50.5     484
50.52    533
50.54    593
50.56    562
50.58    567
50.6     567
50.62    527
50.64    487
50.66    374
50.68    394
50.7     418
50.72    439
50.74    461
50.76    468
50.78    566
50.8     628
50.82    561
50.84    515
50.86    526
50.88    492
50.9     425
50.92    366
50.94    362
50.96    429
50.98    524
51.0     493
51.02    505
51.04    494
51.06    569
51.08    552
51.1     537
51.12    471
51.14    523
51.16    521
51.18    626
51.2     564
51.22    551
51.24    516
51.26    499
51.28    473
51.3     419
51.32    339
51.34    381
51.36    407
51.38    484
51.4     473
51.42    473
51.44    536
51.46    581
51.48    607
51.5     583
51.52    566
51.54    560
51.56    463
51.58    404
51.6     372
51.62    327
51.64    354
51.66    350
51.68    404
51.7     484
51.72    492
51.74    485
51.76    517
51.78    586
51.8     571
51.82    545
51.84    504
51.86    499
51.88    548
51.9     534
51.92    466
51.94    459
51.96    556
51.98    591
52.0     590
52.02    597
52.04    606
52.06    631
52.08    580
52.1     477
52.12    365
52.14    335
52.16    362
52.18    384
52.2     447
52.22    525
52.24    630
52.26    710
52.28    686
52.3     620
52.32    532
52.34    492
52.36    410
52.38    413
52.4     452
52.42    465
52.44    533
52.46    585
52.48    602
52.5     613
52.52    603
52.54    607
52.56    611
52.58    628
52.6     617
52.62    579
52.64    595
52.66    589
52.68    606
52.7     596
52.72    615
52.74    640
52.76    675
52.78    669
52.8     648
52.82    606
52.84    627
52.86    578
52.88    584
52.9     631
52.92    652
52.94    652
52.96    712
52.98    783
53.0     855
53.02    835
53.04    848
53.06    855
53.08    902
53.1     967
53.12    975
53.14    960
53.16    1080
53.18    1230
53.2     1422
53.22    1544
53.24    1779
53.26    2003
53.28    2276
53.3     2634
53.32    3006
53.34    3371
53.36    3827
53.38    4243
53.4     4646
53.42    5017
53.44    5251
53.46    5289
53.48    5240
53.5     5102
53.52    4838
53.54    4440
53.56    3914
53.58    3480
53.6     3034
53.62    2668
53.64    2261
53.66    1938
53.68    1691
53.7     1548
53.72    1449
53.74    1351
53.76    1223
53.78    1210
53.8     1125
53.82    1017
53.84    994
53.86    922
53.88    834
53.9     780
53.92    752
53.94    707
53.96    616
53.98    563
54.0     513
54.02    520
54.04    591
54.06    600
54.08    643
54.1     749
54.12    791
54.14    830
54.16    799
54.18    718
54.2     600
54.22    572
54.24    438
54.26    407
54.28    343
54.3     345
54.32    373
54.34    480
54.36    464
54.38    470
54.4     528
54.42    631
54.44    606
54.46    633
54.48    570
54.5     585
54.52    633
54.54    650
54.56    599
54.58    581
54.6     591
54.62    607
54.64    575
54.66    552
54.68    530
54.7     490
54.72    508
54.74    496
54.76    499
54.78    441
54.8     420
54.82    480
54.84    500
54.86    495
54.88    557
54.9     598
54.92    655
54.94    684
54.96    723
54.98    642
55.0     574
55.02    552
55.04    475
55.06    390
55.08    375
55.1     435
55.12    445
55.14    525
55.16    551
55.18    559
55.2     587
55.22    616
55.24    603
55.26    526
55.28    525
55.3     543
55.32    520
55.34    504
55.36    457
55.38    457
55.4     466
55.42    495
55.44    578
55.46    598
55.48    678
55.5     713
55.52    692
55.54    663
55.56    631
55.58    539
55.6     441
55.62    414
55.64    435
55.66    421
55.68    481
55.7     548
55.72    541
55.74    588
55.76    616
55.78    594
55.8     564
55.82    598
55.84    603
55.86    610
55.88    634
55.9     647
55.92    591
55.94    530
55.96    453
55.98    424
56.0     408
56.02    372
56.04    323
56.06    360
56.08    375
56.1     472
56.12    545
56.14    618
56.16    642
56.18    681
56.2     684
56.22    617
56.24    539
56.26    542
56.28    498
56.3     523
56.32    587
56.34    615
56.36    631
56.38    636
56.4     668
56.42    650
56.44    588
56.46    543
56.48    461
56.5     423
56.52    423
56.54    351
56.56    431
56.58    478
56.6     576
56.62    670
56.64    695
56.66    748
56.68    740
56.7     765
56.72    675
56.74    574
56.76    590
56.78    555
56.8     535
56.82    539
56.84    558
56.86    615
56.88    651
56.9     709
56.92    638
56.94    633
56.96    639
56.98    599
57.0     476
57.02    443
57.04    416
57.06    432
57.08    462
57.1     519
57.12    543
57.14    621
57.16    737
57.18    791
57.2     810
57.22    842
57.24    766
57.26    706
57.28    651
57.3     606
57.32    517
57.34    507
57.36    499
57.38    499
57.4     598
57.42    675
57.44    705
57.46    744
57.48    814
57.5     820
57.52    861
57.54    929
57.56    870
57.58    844
57.6     854
57.62    841
57.64    815
57.66    783
57.68    808
57.7     825
57.72    896
57.74    1095
57.76    1180
57.78    1303
57.8     1393
57.82    1550
57.84    1639
57.86    1759
57.88    1855
57.9     1848
57.92    1926
57.94    2173
57.96    2317
57.98    2542
58.0     2833
58.02    3193
58.04    3575
58.06    4105
58.08    4669
58.1     5282
58.12    6079
58.14    7039
58.16    7996
58.18    8928
58.2     9864
58.22    10639
58.24    11206
58.26    11510
58.28    11412
58.3     10963
58.32    10352
58.34    9666
58.36    8764
58.38    7784
58.4     6871
58.42    6063
58.44    5354
58.46    4743
58.48    4116
58.5     3579
58.52    3215
58.54    2883
58.56    2575
58.58    2224
58.6     1948
58.62    1719
58.64    1587
58.66    1483
58.68    1354
58.7     1313
58.72    1230
58.74    1158
58.76    1199
58.78    1173
58.8     1200
58.82    1090
58.84    1060
58.86    981
58.88    915
58.9     856
58.92    753
58.94    679
58.96    681
58.98    716
59.0     800
59.02    806
59.04    818
59.06    830
59.08    846
59.1     798
59.12    769
59.14    682
59.16    597
59.18    552
59.2     583
59.22    579
59.24    563
59.26    583
59.28    622
59.3     665
59.32    720
59.34    716
59.36    645
59.38    543
59.4     514
59.42    489
59.44    480
59.46    515
59.48    535
59.5     611
59.52    632
59.54    671
59.56    646
59.58    600
59.6     574
59.62    535
59.64    538
59.66    497
59.68    402
59.7     455
59.72    469
59.74    568
59.76    555
59.78    570
59.8     575
59.82    598
59.84    614
59.86    534
59.88    560
59.9     541
59.92    588
59.94    579
59.96    572
59.98    589
60.0     604
60.02    597
60.04    559
60.06    562
60.08    586
60.1     484
60.12    501
60.14    466
60.16    474
60.18    443
60.2     380
60.22    415
60.24    459
60.26    568
60.28    559
60.3     546
60.32    581
60.34    592
60.36    547
60.38    470
60.4     399
60.42    432
60.44    449
60.46    505
60.48    495
60.5     543
60.52    600
60.54    604
60.56    595
60.58    591
60.6     557
60.62    525
60.64    534
60.66    557
60.68    549
60.7     512
60.72    481
60.74    428
60.76    401
60.78    490
60.8     516
60.82    511
60.84    564
60.86    614
60.88    617
60.9     615
60.92    642
60.94    634
60.96    589
60.98    630
61.0     624
61.02    573
61.04    578
61.06    539
61.08    501
61.1     496
61.12    496
61.14    495
61.16    559
61.18    598
61.2     636
61.22    708
61.24    760
61.26    760
61.28    736
61.3     728
61.32    666
61.34    662
61.36    627
61.38    510
61.4     442
61.42    480
61.44    486
61.46    521
61.48    567
61.5     655
61.52    717
61.54    774
61.56    776
61.58    770
61.6     789
61.62    784
61.64    785
61.66    777
61.68    794
61.7     837
61.72    823
61.74    853
61.76    932
61.78    992
61.8     1127
61.82    1219
61.84    1355
61.86    1549
61.88    1746
61.9     1993
61.92    2163
61.94    2470
61.96    2917
61.98    3421
62.0     4028
62.02    4705
62.04    5509
62.06    6498
62.08    7538
62.1     8629
62.12    9630
62.14    10539
62.16    11337
62.18    11778
62.2     11927
62.22    11752
62.24    11262
62.26    10656
62.28    9918
62.3     9105
62.32    8331
62.34    7550
62.36    6840
62.38    6186
62.4     5625
62.42    5086
62.44    4498
62.46    4035
62.48    3576
62.5     3183
62.52    2820
62.54    2468
62.56    2144
62.58    1857
62.6     1665
62.62    1534
62.64    1281
62.66    1173
62.68    1039
62.7     966
62.72    929
62.74    939
62.76    891
62.78    838
62.8     888
62.82    934
62.84    890
62.86    922
62.88    817
62.9     795
62.92    761
62.94    755
62.96    705
62.98    665
63.0     696
63.02    712
63.04    709
63.06    750
63.08    697
63.1     715
63.12    653
63.14    676
63.16    671
63.18    706
63.2     680
63.22    631
63.24    563
63.26    595
63.28    537
63.3     511
63.32    469
63.34    466
63.36    478
63.38    535
63.4     501
63.42    550
63.44    521
63.46    496
63.48    458
63.5     442
63.52    387
63.54    346
63.56    417
63.58    485
63.6     494
63.62    589
63.64    597
63.66    596
63.68    658
63.7     677
63.72    639
63.74    598
63.76    667
63.78    646
63.8     596
63.82    595
63.84    506
63.86    460
63.88    488
63.9     482
63.92    517
63.94    498
63.96    603
63.98    638
64.0     685
64.02    755
64.04    753
64.06    691
64.08    697
64.1     682
64.12    740
64.14    708
64.16    679
64.18    605
64.2     546
64.22    529
64.24    528
64.26    405
64.28    419
64.3     437
64.32    545
64.34    589
64.36    615
64.38    624
64.4     613
64.42    566
64.44    648
64.46    593
64.48    596
64.5     635
64.52    707
64.54    793
64.56    908
64.58    1036
64.6     1184
64.62    1237
64.64    1402
64.66    1503
64.68    1614
64.7     1771
64.72    1893
64.74    2124
64.76    2315
64.78    2551
64.8     2807
64.82    3004
64.84    3162
64.86    3262
64.88    3292
64.9     3282
64.92    3207
64.94    3129
64.96    2970
64.98    2837
65.0     2715
65.02    2604
65.04    2414
65.06    2164
65.08    1957
65.1     1739
65.12    1533
65.14    1268
65.16    1086
65.18    921
65.2     803
65.22    753
65.24    738
65.26    715
65.28    755
65.3     753
65.32    793
65.34    806
65.36    842
65.38    843
65.4     872
65.42    821
65.44    766
65.46    691
65.48    594
65.5     462
65.52    438
65.54    354
65.56    291
65.58    297
65.6     316
65.62    296
65.64    339
65.66    394
65.68    450
65.7     497
65.72    599
65.74    587
65.76    626
65.78    604
65.8     537
65.82    488
65.84    430
65.86    413
65.88    373
65.9     317
65.92    330
65.94    281
65.96    283
65.98    303
66.0     325
66.02    343
66.04    356
66.06    458
66.08    510
66.1     486
66.12    462
66.14    438
66.16    482
66.18    487
66.2     471
66.22    449
66.24    449
66.26    475
66.28    513
66.3     499
66.32    439
66.34    446
66.36    483
66.38    427
66.4     397
66.42    393
66.44    408
66.46    369
66.48    394
66.5     443
66.52    439
66.54    463
66.56    545
66.58    564
66.6     602
66.62    650
66.64    635
66.66    530
66.68    500
66.7     418
66.72    322
66.74    256
66.76    219
66.78    240
66.8     293
66.82    335
66.84    375
66.86    369
66.88    450
66.9     425
66.92    450
66.94    444
66.96    389
66.98    411
67.0     431
67.02    389
67.04    392
67.06    377
67.08    340
67.1     351
67.12    410
67.14    407
67.16    363
67.18    356
67.2     375
67.22    388
67.24    433
67.26    521
67.28    529
67.3     609
67.32    664
67.34    694
67.36    658
67.38    636
67.4     635
67.42    622
67.44    600
67.46    494
67.48    381
67.5     315
67.52    279
67.54    249
67.56    235
67.58    256
67.6     336
67.62    406
67.64    490
67.66    453
67.68    505
67.7     557
67.72    513
67.74    447
67.76    386
67.78    351
67.8     322
67.82    343
67.84    397
67.86    409
67.88    469
67.9     516
67.92    541
67.94    596
67.96    644
67.98    692
68.0     709
68.02    705
68.04    652
68.06    572
68.08    486
68.1     437
68.12    382
68.14    352
68.16    359
68.18    321
68.2     338
68.22    282
68.24    329
68.26    384
68.28    408
68.3     474
68.32    562
68.34    607
68.36    634
68.38    692
68.4     709
68.42    668
68.44    668
68.46    678
68.48    675
68.5     707
68.52    717
68.54    704
68.56    730
68.58    815
68.6     860
68.62    889
68.64    916
68.66    957
68.68    1044
68.7     1136
68.72    1232
68.74    1372
68.76    1535
68.78    1688
68.8     1903
68.82    2054
68.84    2244
68.86    2435
68.88    2662
68.9     2830
68.92    2957
68.94    3027
68.96    3029
68.98    2967
69.0     2886
69.02    2680
69.04    2568
69.06    2449
69.08    2221
69.1     2064
69.12    1833
69.14    1646
69.16    1461
69.18    1350
69.2     1235
69.22    1093
69.24    1017
69.26    944
69.28    898
69.3     904
69.32    857
69.34    820
69.36    859
69.38    854
69.4     810
69.42    819
69.44    795
69.46    738
69.48    727
69.5     670
69.52    632
69.54    617
69.56    598
69.58    507
69.6     460
69.62    523
69.64    531
69.66    529
69.68    535
69.7     583
69.72    619
69.74    656
69.76    654
69.78    575
69.8     527
69.82    516
69.84    473
69.86    430
69.88    460
69.9     493
69.92    477
69.94    507
69.96    530
69.98    547
70.0     544
70.02    523
70.04    571
70.06    584
70.08    587
70.1     573
70.12    587
70.14    612
70.16    659
70.18    744
70.2     772
70.22    822
70.24    864
70.26    875
70.28    852
70.3     899
70.32    962
70.34    994
70.36    1050
70.38    1140
70.4     1227
70.42    1337
70.44    1430
70.46    1538
70.48    1617
70.5     1629
70.52    1629
70.54    1558
70.56    1544
70.58    1491
70.6     1401
70.62    1374
70.64    1293
70.66    1217
70.68    1099
70.7     970
70.72    893
70.74    840
70.76    806
70.78    724
70.8     704
70.82    703
70.84    687
70.86    684
70.88    628
70.9     643
70.92    614
70.94    602
70.96    578
70.98    558
71.0     505
71.02    443
71.04    446
71.06    426
71.08    398
71.1     374
71.12    334
71.14    340
71.16    355
71.18    402
71.2     450
71.22    522
71.24    560
71.26    590
71.28    581
71.3     614
71.32    606
71.34    589
71.36    555
71.38    517
71.4     509
71.42    512
71.44    455
71.46    472
71.48    480
71.5     519
71.52    502
71.54    500
71.56    483
71.58    461
71.6     458
71.62    453
71.64    386
71.66    349
71.68    338
71.7     327
71.72    315
71.74    393
71.76    468
71.78    498
71.8     517
71.82    521
71.84    495
71.86    550
71.88    689
71.9     710
71.92    742
71.94    744
71.96    680
71.98    615
72.0     574
72.02    496
72.04    489
72.06    546
72.08    672
72.1     668
72.12    745
72.14    746
72.16    845
72.18    901
72.2     934
72.22    1045
72.24    1119
72.26    1118
72.28    1137
72.3     1136
72.32    1203
72.34    1295
72.36    1458
72.38    1626
72.4     1845
72.42    2144
72.44    2306
72.46    2526
72.48    2819
72.5     3135
72.52    3387
72.54    3583
72.56    3747
72.58    3809
72.6     3763
72.62    3633
72.64    3430
72.66    3284
72.68    3109
72.7     2855
72.72    2561
72.74    2301
72.76    2087
72.78    1867
72.8     1657
72.82    1515
72.84    1407
72.86    1303
72.88    1205
72.9     1123
72.92    1056
72.94    1065
72.96    1052
72.98    1026
73.0     957
73.02    959
73.04    934
73.06    882
73.08    834
73.1     794
73.12    757
73.14    734
73.16    663
73.18    619
73.2     600
73.22    624
73.24    619
73.26    630
73.28    654
73.3     709
73.32    748
73.34    730
73.36    769
73.38    780
73.4     822
73.42    863
73.44    883
73.46    1000
73.48    1063
73.5     1105
73.52    1105
73.54    1170
73.56    1198
73.58    1091
73.6     1055
73.62    982
73.64    882
73.66    865
73.68    753
73.7     693
73.72    682
73.74    735
73.76    685
73.78    661
73.8     701
73.82    696
73.84    675
73.86    671
73.88    675
73.9     649
73.92    664
73.94    626
73.96    632
73.98    637
74.0     689
74.02    698
74.04    719
74.06    714
74.08    726
74.1     702
74.12    822
74.14    930
74.16    1062
74.18    1165
74.2     1270
74.22    1308
74.24    1451
74.26    1575
74.28    1645
74.3     1779
74.32    1929
74.34    1934
74.36    1866
74.38    1776
74.4     1669
74.42    1584
74.44    1582
74.46    1568
74.48    1515
74.5     1589
74.52    1620
74.54    1558
74.56    1532
74.58    1525
74.6     1542
74.62    1532
74.64    1497
74.66    1457
74.68    1551
74.7     1694
74.72    1762
74.74    1794
74.76    1840
74.78    1842
74.8     1789
74.82    1672
74.84    1617
74.86    1517
74.88    1567
74.9     1464
74.92    1338
74.94    1205
74.96    1159
74.98    1099
75.0     991
75.02    936
75.04    969
75.06    938
75.08    996
75.1     926
75.12    973
75.14    992
75.16    1045
75.18    1042
75.2     914
75.22    882
75.24    754
75.26    641
75.28    588
75.3     494
75.32    553
75.34    502
75.36    444
75.38    423
75.4     417
75.42    446
75.44    384
75.46    459
75.48    508
75.5     548
75.52    616
75.54    523
75.56    541
75.58    599
75.6     609
75.62    544
75.64    551
75.66    539
75.68    441
75.7     361
75.72    234
75.74    162
75.76    202
75.78    214
75.8     183
75.82    256
75.84    331
75.86    302
75.88    270
75.9     201
75.92    159
75.94    239
75.96    246
75.98    260
76.0     318
76.02    391
76.04    412
76.06    469
76.08    467
76.1     449
76.12    503
76.14    564
76.16    509
76.18    540
76.2     522
76.22    457
76.24    427
76.26    401
76.28    348
76.3     387
76.32    443
76.34    462
76.36    468
76.38    507
76.4     401
76.42    363
76.44    327
76.46    331
76.48    374
76.5     486
76.52    554
76.54    585
76.56    547
76.58    469
76.6     377
76.62    361
76.64    382
76.66    401
76.68    374
76.7     388
76.72    372
76.74    358
76.76    319
76.78    359
76.8     421
76.82    521
76.84    613
76.86    566
76.88    498
76.9     451
76.92    390
76.94    430
76.96    444
76.98    458
77.0     512
77.02    538
77.04    498
77.06    491
77.08    544
77.1     584
77.12    662
77.14    749
77.16    777
77.18    785
77.2     830
77.22    791
77.24    768
77.26    885
77.28    962
77.3     1066
77.32    1149
77.34    1241
77.36    1372
77.38    1538
77.4     1725
77.42    1876
77.44    2066
77.46    2325
77.48    2554
77.5     2744
77.52    2966
77.54    3207
77.56    3462
77.58    3725
77.6     3847
77.62    3883
77.64    3875
77.66    3811
77.68    3695
77.7     3473
77.72    3362
77.74    3175
77.76    3033
77.78    2859
77.8     2632
77.82    2505
77.84    2286
77.86    2109
77.88    1947
77.9     1807
77.92    1655
77.94    1401
77.96    1237
77.98    1101
78.0     1043
78.02    1087
78.04    978
78.06    960
78.08    972
78.1     938
78.12    830
78.14    681
78.16    700
78.18    656
78.2     649
78.22    612
78.24    527
78.26    452
78.28    487
78.3     477
78.32    468
78.34    501
78.36    635
78.38    641
78.4     613
78.42    510
78.44    404
78.46    346
78.48    353
78.5     355
78.52    359
78.54    358
78.56    408
78.58    392
78.6     342
78.62    352
78.64    397
78.66    431
78.68    421
78.7     398
78.72    426
78.74    393
78.76    401
78.78    430
78.8     431
78.82    500
78.84    521
78.86    432
78.88    391
78.9     316
78.92    330
78.94    318
78.96    310
78.98    383
79.0     380
79.02    345
79.04    285
79.06    192
79.08    238
79.1     248
79.12    271
79.14    326
79.16    393
79.18    477
79.2     496
79.22    498
79.24    461
79.26    469
79.28    524
79.3     533
79.32    520
79.34    570
79.36    547
79.38    505
79.4     501
79.42    469
79.44    427
79.46    381
79.48    330
79.5     293
79.52    273
79.54    293
79.56    263
79.58    291
79.6     370
79.62    360
79.64    347
79.66    332
79.68    290
79.7     298
79.72    314
79.74    340
79.76    297
79.78    282
79.8     363
79.82    353
79.84    392
79.86    456
79.88    467
79.9     534
79.92    610
79.94    601
79.96    517
79.98    500
80.0     558
80.02    583
80.04    541
80.06    472
80.08    462
80.1     439
80.12    458
80.14    459
80.16    460
80.18    475
80.2     472
80.22    479
80.24    440
80.26    434
80.28    451
80.3     491
80.32    460
80.34    511
80.36    463
80.38    430
80.4     354
80.42    307
80.44    390
80.46    381
80.48    389
80.5     430
80.52    412
80.54    368
80.56    386
80.58    401
80.6     348
80.62    306
80.64    329
80.66    308
80.68    268
80.7     298
80.72    295
80.74    289
80.76    321
80.78    400
80.8     372
80.82    366
80.84    349
80.86    357
80.88    279
80.9     278
80.92    268
80.94    272
80.96    239
80.98    312
81.0     321
81.02    349
81.04    327
81.06    275
81.08    272
81.1     255
81.12    236
81.14    258
81.16    272
81.18    344
81.2     446
81.22    451
81.24    433
81.26    409
81.28    457
81.3     398
81.32    350
81.34    343
81.36    294
81.38    273
81.4     319
81.42    233
81.44    233
81.46    205
81.48    201
81.5     232
81.52    270
81.54    288
81.56    266
81.58    253
81.6     320
81.62    288
81.64    275
81.66    278
81.68    322
81.7     382
81.72    439
81.74    447
81.76    352
81.78    302
81.8     320
81.82    333
81.84    308
81.86    340
81.88    391
81.9     430
81.92    420
81.94    346
81.96    302
81.98    303
82.0     369
82.02    437
82.04    407
82.06    369
82.08    386
82.1     354
82.12    312
82.14    271
82.16    282
82.18    314
82.2     297
82.22    289
82.24    228
82.26    133
82.28    147
82.3     188
82.32    304
82.34    328
82.36    366
82.38    392
82.4     340
82.42    330
82.44    309
82.46    260
82.48    289
82.5     320
82.52    394
82.54    407
82.56    424
82.58    358
82.6     350
82.62    277
82.64    200
82.66    166
82.68    130
82.7     127
82.72    132
82.74    183
82.76    202
82.78    241
82.8     257
82.82    169
82.84    175
82.86    244
82.88    335
82.9     425
82.92    454
82.94    522
82.96    523
82.98    548
83.0     447
83.02    354
83.04    352
83.06    334
83.08    335
83.1     328
83.12    302
83.14    257
83.16    220
83.18    193
83.2     154
83.22    199
83.24    216
83.26    238
83.28    279
83.3     342
83.32    387
83.34    381
83.36    396
83.38    419
83.4     407
83.42    373
83.44    298
83.46    311
83.48    257
83.5     230
83.52    213
83.54    162
83.56    185
83.58    194
83.6     173
83.62    107
83.64    97
83.66    162
83.68    172
83.7     204
83.72    246
83.74    280
83.76    343
83.78    338
83.8     389
83.82    330
83.84    322
83.86    342
83.88    350
83.9     351
83.92    332
83.94    273
83.96    256
83.98    305
84.0     388
84.02    410
84.04    449
84.06    468
84.08    479
84.1     440
84.12    353
84.14    213
84.16    161
84.18    196
84.2     272
84.22    361
84.24    344
84.26    362
84.28    378
84.3     384
84.32    378
84.34    295
84.36    323
84.38    367
84.4     420
84.42    391
84.44    326
84.46    300
84.48    298
84.5     364
84.52    316
84.54    323
84.56    355
84.58    324
84.6     310
84.62    280
84.64    320
84.66    345
84.68    424
84.7     538
84.72    537
84.74    548
84.76    495
84.78    413
84.8     365
84.82    343
84.84    432
84.86    438
84.88    456
84.9     446
84.92    439
84.94    411
84.96    416
84.98    339
85.0     349
85.02    360
85.04    459
85.06    453
85.08    427
85.1     316
85.12    278
85.14    218
85.16    222
85.18    178
85.2     177
85.22    162
85.24    227
85.26    240
85.28    232
85.3     175
85.32    142
85.34    125
85.36    227
85.38    299
85.4     363
85.42    394
85.44    407
85.46    364
85.48    351
85.5     315
85.52    278
85.54    284
85.56    360
85.58    372
85.6     430
85.62    403
85.64    357
85.66    289
85.68    258
85.7     210
85.72    220
85.74    216
85.76    184
85.78    192
85.8     242
85.82    229
85.84    235
85.86    205
85.88    183
85.9     155
85.92    208
85.94    161
85.96    125
85.98    163
86.0     188
86.02    284
86.04    350
86.06    351
86.08    373
86.1     353
86.12    426
86.14    429
86.16    437
86.18    441
86.2     448
86.22    524
86.24    599
86.26    630
86.28    693
86.3     710
86.32    773
86.34    800
86.36    827
86.38    891
86.4     833
86.42    827
86.44    885
86.46    840
86.48    870
86.5     787
86.52    684
86.54    643
86.56    645
86.58    688
86.6     645
86.62    605
86.64    588
86.66    569
86.68    610
86.7     569
86.72    545
86.74    507
86.76    477
86.78    530
86.8     561
86.82    485
86.84    462
86.86    422
86.88    418
86.9     443
86.92    477
86.94    449
86.96    412
86.98    459
87.0     473
87.02    444
87.04    431
87.06    391
87.08    332
87.1     308
87.12    276
87.14    212
87.16    128
87.18    64
87.2     78
87.22    145
87.24    169
87.26    158
87.28    110
87.3     93
87.32    56
87.34    96
87.36    168
87.38    212
87.4     315
87.42    412
87.44    437
87.46    440
87.48    423
87.5     388
87.52    388
87.54    416
87.56    529
87.58    517
87.6     509
87.62    518
87.64    477
87.66    394
87.68    269
87.7     215
87.72    211
87.74    204
87.76    266
87.78    260
87.8     239
87.82    235
87.84    164
87.86    128
87.88    70
87.9     81
87.92    137
87.94    203
87.96    265
87.98    307
88.0     282
88.02    262
88.04    259
88.06    263
88.08    216
88.1     240
88.12    334
88.14    375
88.16    393
88.18    366
88.2     368
88.22    348
88.24    335
88.26    309
88.28    281
88.3     315
88.32    391
88.34    394
88.36    436
88.38    401
88.4     364
88.42    305
88.44    221
88.46    177
88.48    130
88.5     104
88.52    132
88.54    191
88.56    238
88.58    242
88.6     262
88.62    291
88.64    225
88.66    251
88.68    291
88.7     273
88.72    305
88.74    290
88.76    264
88.78    302
88.8     289
88.82    251
88.84    191
88.86    232
88.88    226
88.9     207
88.92    308
88.94    330
88.96    361
88.98    409
89.0     396
89.02    386
89.04    376
89.06    321
89.08    276
89.1     315
89.12    371
89.14    388
89.16    390
89.18    385
89.2     315
89.22    340
89.24    333
89.26    326
89.28    365
89.3     402
89.32    371
89.34    418
89.36    389
89.38    223
89.4     139
89.42    153
89.44    113
89.46    118
89.48    173
89.5     145
89.52    109
89.54    131
89.56    90
89.58    36
89.6     97
89.62    140
89.64    160
89.66    285
89.68    406
89.7     426
89.72    453
89.74    509
89.76    497
89.78    583
89.8     615
89.82    563
89.84    494
89.86    475
89.88    419
89.9     407
89.92    389
89.94    458
89.96    460
89.98    437
90.0     424
