?
5.0      637
5.02     637
5.04     824
5.06     702
5.08     731
5.1      689
5.12     735
5.14     728
5.16     764
5.18     795
5.2      785
5.22     770
5.24     789
5.26     816
5.28     808
5.3      837
5.32     860
5.34     839
5.36     864
5.38     871
5.4      857
5.42     837
5.44     799
5.46     773
5.48     750
5.5      743
5.52     735
5.54     783
5.56     814
5.58     826
5.6      888
5.62     870
5.64     845
5.66     857
5.68     838
5.7      845
5.72     864
5.74     905
5.76     879
5.78     868
5.8      873
5.82     792
5.84     801
5.86     784
5.88     755
5.9      798
5.92     827
5.94     843
5.96     866
5.98     878
6.0      874
6.02     905
6.04     911
6.06     912
6.08     886
6.1      913
6.12     894
6.14     879
6.16     904
6.18     907
6.2      899
6.22     907
6.24     862
6.26     874
6.28     831
6.3      866
6.32     845
6.34     854
6.36     869
6.38     903
6.4      880
6.42     887
6.44     891
6.46     896
6.48     876
6.5      868
6.52     812
6.54     825
6.56     807
6.58     831
6.6      803
6.62     799
6.64     772
6.66     800
6.68     799
6.7      793
6.72     794
6.74     815
6.76     828
6.78     860
6.8      835
6.82     842
6.84     780
6.86     846
6.88     833
6.9      844
6.92     830
6.94     806
6.96     794
6.98     819
7.0      778
7.02     804
7.04     756
7.06     847
7.08     864
7.1      870
7.12     886
7.14     872
7.16     865
7.18     868
7.2      822
7.22     823
7.24     805
7.26     820
7.28     859
7.3      825
7.32     843
7.34     860
7.36     889
7.38     851
7.4      852
7.42     803
7.44     787
7.46     779
7.48     820
7.5      759
7.52     775
7.54     811
7.56     803
7.58     821
7.6      822
7.62     791
7.64     826
7.66     859
7.68     899
7.7      867
7.72     909
7.74     914
7.76     918
7.78     917
7.8      914
7.82     822
7.84     839
7.86     757
7.88     783
7.9      758
7.92     779
7.94     765
7.96     812
7.98     825
8.0      891
8.02     805
8.04     861
8.06     790
8.08     862
8.1      865
8.12     861
8.14     856
8.16     864
8.18     831
8.2      846
8.22     794
8.24     817
8.26     782
8.28     810
8.3      851
8.32     828
8.34     861
8.36     826
8.38     855
8.4      912
8.42     894
8.44     953
8.46     925
8.48     941
8.5      942
8.52     900
8.54     902
8.56     870
8.58     885
8.6      854
8.62     841
8.64     914
8.66     881
8.68     879
8.7      879
8.72     844
8.74     871
8.76     862
8.78     867
8.8      848
8.82     852
8.84     923
8.86     865
8.88     917
8.9      910
8.92     908
8.94     903
8.96     898
8.98     930
9.0      906
9.02     903
9.04     911
9.06     857
9.08     926
9.1      883
9.12     894
9.14     815
9.16     836
9.18     816
9.2      802
9.22     740
9.24     720
9.26     656
9.28     655
9.3      611
9.32     604
9.34     677
9.36     709
9.38     708
9.4      794
9.42     752
9.44     832
9.46     778
9.48     798
9.5      782
9.52     772
9.54     817
9.56     809
9.58     723
9.6      746
9.62     706
9.64     731
9.66     707
9.68     742
9.7      747
9.72     751
9.74     738
9.76     787
9.78     749
9.8      812
9.82     830
9.84     825
9.86     793
9.88     775
9.9      724
9.92     665
9.94     639
9.96     635
9.98     660
10.0     719
10.02    750
10.04    745
10.06    753
10.08    771
10.1     755
10.12    719
10.14    685
10.16    644
10.18    644
10.2     663
10.22    704
10.24    683
10.26    699
10.28    778
10.3     793
10.32    747
10.34    742
10.36    699
10.38    696
10.4     699
10.42    714
10.44    725
10.46    730
10.48    778
10.5     760
10.52    733
10.54    728
10.56    689
10.58    724
10.6     713
10.62    739
10.64    755
10.66    723
10.68    749
10.7     778
10.72    764
10.74    741
10.76    773
10.78    798
10.8     763
10.82    781
10.84    762
10.86    728
10.88    748
10.9     782
10.92    751
10.94    746
10.96    764
10.98    753
11.0     768
11.02    711
11.04    690
11.06    683
11.08    676
11.1     702
11.12    722
11.14    759
11.16    742
11.18    753
11.2     802
11.22    728
11.24    718
11.26    708
11.28    694
11.3     659
11.32    667
11.34    679
11.36    671
11.38    722
11.4     748
11.42    795
11.44    826
11.46    836
11.48    846
11.5     829
11.52    813
11.54    797
11.56    788
11.58    746
11.6     741
11.62    792
11.64    771
11.66    794
11.68    776
11.7     791
11.72    780
11.74    791
11.76    796
11.78    822
11.8     843
11.82    811
11.84    833
11.86    836
11.88    803
11.9     804
11.92    828
11.94    861
11.96    861
11.98    874
12.0     806
12.02    766
12.04    776
12.06    765
12.08    754
12.1     761
12.12    811
12.14    814
12.16    826
12.18    855
12.2     825
12.22    831
12.24    826
12.26    826
12.28    813
12.3     814
12.32    800
12.34    769
12.36    773
12.38    779
12.4     795
12.42    820
12.44    807
12.46    827
12.48    873
12.5     888
12.52    809
12.54    838
12.56    826
12.58    797
12.6     828
12.62    862
12.64    919
12.66    972
12.68    998
12.7     976
12.72    905
12.74    906
12.76    848
12.78    756
12.8     788
12.82    864
12.84    901
12.86    888
12.88    928
12.9     939
12.92    939
12.94    954
12.96    960
12.98    955
13.0     1020
13.02    999
13.04    981
13.06    948
13.08    974
13.1     963
13.12    900
13.14    911
13.16    902
13.18    897
13.2     914
13.22    909
13.24    951
13.26    1001
13.28    1069
13.3     1038
13.32    992
13.34    1005
13.36    994
13.38    1017
13.4     1011
13.42    988
13.44    1009
13.46    1039
13.48    998
13.5     900
13.52    913
13.54    927
13.56    972
13.58    1052
13.6     1085
13.62    1104
13.64    1150
13.66    1137
13.68    1083
13.7     1038
13.72    1044
13.74    1015
13.76    1068
13.78    1092
13.8     1091
13.82    1087
13.84    1129
13.86    1133
13.88    1111
13.9     1104
13.92    1126
13.94    1130
13.96    1200
13.98    1187
14.0     1162
14.02    1169
14.04    1157
14.06    1107
14.08    1052
14.1     1033
14.12    1044
14.14    1041
14.16    1048
14.18    1049
14.2     1048
14.22    1141
14.24    1190
14.26    1199
14.28    1212
14.3     1204
14.32    1177
14.34    1206
14.36    1200
14.38    1201
14.4     1167
14.42    1159
14.44    1138
14.46    1142
14.48    1131
14.5     1110
14.52    1128
14.54    1194
14.56    1210
14.58    1177
14.6     1210
14.62    1202
14.64    1252
14.66    1274
14.68    1243
14.7     1247
14.72    1296
14.74    1296
14.76    1272
14.78    1219
14.8     1292
14.82    1340
14.84    1305
14.86    1249
14.88    1294
14.9     1352
14.92    1372
14.94    1434
14.96    1448
14.98    1414
15.0     1469
15.02    1472
15.04    1384
15.06    1368
15.08    1454
15.1     1486
15.12    1406
15.14    1415
15.16    1395
15.18    1318
15.2     1260
15.22    1208
15.24    1214
15.26    1272
15.28    1312
15.3     1257
15.32    1245
15.34    1319
15.36    1349
15.38    1327
15.4     1335
15.42    1332
15.44    1367
15.46    1427
15.48    1374
15.5     1251
15.52    1263
15.54    1313
15.56    1305
15.58    1287
15.6     1270
15.62    1293
15.64    1380
15.66    1419
15.68    1401
15.7     1353
15.72    1370
15.74    1436
15.76    1437
15.78    1417
15.8     1426
15.82    1538
15.84    1566
15.86    1493
15.88    1525
15.9     1606
15.92    1715
15.94    1787
15.96    1783
15.98    1916
16.0     2067
16.02    2143
16.04    2169
16.06    2196
16.08    2304
16.1     2405
16.12    2526
16.14    2664
16.16    2842
16.18    3135
16.2     3399
16.22    3713
16.24    4211
16.26    4821
16.28    5444
16.3     6230
16.32    7251
16.34    8502
16.36    9993
16.38    11813
16.4     14016
16.42    16788
16.44    20173
16.46    24079
16.48    28521
16.5     33293
16.52    37637
16.54    40825
16.56    42196
16.58    41463
16.6     38431
16.62    33597
16.64    27734
16.66    21646
16.68    16273
16.7     12020
16.72    8947
16.74    6837
16.76    5433
16.78    4574
16.8     3958
16.82    3492
16.84    3164
16.86    2842
16.88    2537
16.9     2369
16.92    2262
16.94    2068
16.96    1911
16.98    1801
17.0     1725
17.02    1654
17.04    1668
17.06    1645
17.08    1613
17.1     1646
17.12    1642
17.14    1621
17.16    1619
17.18    1546
17.2     1431
17.22    1341
17.24    1408
17.26    1412
17.28    1375
17.3     1341
17.32    1307
17.34    1279
17.36    1253
17.38    1201
17.4     1165
17.42    1180
17.44    1244
17.46    1197
17.48    1165
17.5     1193
17.52    1245
17.54    1224
17.56    1144
17.58    1125
17.6     1151
17.62    1127
17.64    1024
17.66    960
17.68    1000
17.7     1081
17.72    1091
17.74    1109
17.76    1085
17.78    1119
17.8     1138
17.82    1083
17.84    991
17.86    954
17.88    951
17.9     971
17.92    942
17.94    954
17.96    926
17.98    951
18.0     1005
18.02    992
18.04    947
18.06    923
18.08    939
18.1     1010
18.12    1017
18.14    986
18.16    1052
18.18    1069
18.2     1046
18.22    965
18.24    925
18.26    917
18.28    930
18.3     924
18.32    890
18.34    885
18.36    939
18.38    886
18.4     814
18.42    786
18.44    813
18.46    910
18.48    915
18.5     837
18.52    762
18.54    775
18.56    849
18.58    852
18.6     764
18.62    690
18.64    676
18.66    785
18.68    820
18.7     778
18.72    787
18.74    889
18.76    963
18.78    962
18.8     839
18.82    748
18.84    761
18.86    790
18.88    796
18.9     788
18.92    800
18.94    789
18.96    784
18.98    748
19.0     704
19.02    728
19.04    744
19.06    690
19.08    672
19.1     681
19.12    636
19.14    616
19.16    590
19.18    569
19.2     669
19.22    766
19.24    815
19.26    873
19.28    868
19.3     825
19.32    776
19.34    774
19.36    681
19.38    623
19.4     652
19.42    664
19.44    704
19.46    730
19.48    732
19.5     717
19.52    696
19.54    733
19.56    751
19.58    749
19.6     780
19.62    756
19.64    726
19.66    673
19.68    633
19.7     549
19.72    495
19.74    592
19.76    655
19.78    615
19.8     637
19.82    641
19.84    623
19.86    613
19.88    596
19.9     571
19.92    587
19.94    641
19.96    561
19.98    476
20.0     491
20.02    511
20.04    485
20.06    533
20.08    530
20.1     494
20.12    470
20.14    455
20.16    444
20.18    478
20.2     502
20.22    555
20.24    598
20.26    698
20.28    679
20.3     625
20.32    596
20.34    612
20.36    621
20.38    565
20.4     501
20.42    498
20.44    561
20.46    634
20.48    602
20.5     635
20.52    705
20.54    747
20.56    670
20.58    594
20.6     546
20.62    574
20.64    631
20.66    641
20.68    620
20.7     648
20.72    691
20.74    692
20.76    614
20.78    531
20.8     427
20.82    439
20.84    486
20.86    519
20.88    545
20.9     525
20.92    609
20.94    642
20.96    655
20.98    553
21.0     490
21.02    490
21.04    512
21.06    518
21.08    513
21.1     548
21.12    574
21.14    577
21.16    561
21.18    512
21.2     444
21.22    341
21.24    330
21.26    357
21.28    406
21.3     465
21.32    460
21.34    490
21.36    464
21.38    544
21.4     536
21.42    514
21.44    491
21.46    468
21.48    499
21.5     497
21.52    504
21.54    463
21.56    465
21.58    495
21.6     517
21.62    452
21.64    431
21.66    394
21.68    413
21.7     420
21.72    454
21.74    405
21.76    426
21.78    381
21.8     456
21.82    460
21.84    558
21.86    556
21.88    559
21.9     567
21.92    574
21.94    530
21.96    465
21.98    435
22.0     464
22.02    446
22.04    408
22.06    413
22.08    415
22.1     460
22.12    430
22.14    443
22.16    433
22.18    485
22.2     460
22.22    451
22.24    399
22.26    508
22.28    510
22.3     518
22.32    437
22.34    458
22.36    429
22.38    390
22.4     359
22.42    394
22.44    406
22.46    430
22.48    366
22.5     404
22.52    462
22.54    522
22.56    469
22.58    468
22.6     469
22.62    468
22.64    434
22.66    350
22.68    306
22.7     360
22.72    386
22.74    455
22.76    433
22.78    444
22.8     380
22.82    403
22.84    458
22.86    529
22.88    514
22.9     553
22.92    496
22.94    535
22.96    485
22.98    389
23.0     322
23.02    328
23.04    333
23.06    353
23.08    304
23.1     360
23.12    300
23.14    350
23.16    334
23.18    334
23.2     344
23.22    374
23.24    347
23.26    364
23.28    407
23.3     440
23.32    415
23.34    401
23.36    358
23.38    361
23.4     327
23.42    323
23.44    341
23.46    328
23.48    333
23.5     310
23.52    342
23.54    315
23.56    308
23.58    315
23.6     327
23.62    320
23.64    391
23.66    415
23.68    456
23.7     463
23.72    468
23.74    432
23.76    378
23.78    362
23.8     343
23.82    345
23.84    359
23.86    359
23.88    374
23.9     358
23.92    343
23.94    333
23.96    301
23.98    307
24.0     288
24.02    339
24.04    337
24.06    363
24.08    390
24.1     392
24.12    345
24.14    343
24.16    350
24.18    412
24.2     349
24.22    370
24.24    319
24.26    316
24.28    259
24.3     263
24.32    201
24.34    262
24.36    259
24.38    309
24.4     279
24.42    328
24.44    326
24.46    365
24.48    343
24.5     369
24.52    349
24.54    373
24.56    313
24.58    318
24.6     331
24.62    342
24.64    323
24.66    319
24.68    307
24.7     319
24.72    363
24.74    409
24.76    392
24.78    382
24.8     353
24.82    362
24.84    340
24.86    347
24.88    347
24.9     344
24.92    342
24.94    357
24.96    372
24.98    357
25.0     359
25.02    382
25.04    394
25.06    356
25.08    345
25.1     254
25.12    201
25.14    230
25.16    278
25.18    297
25.2     374
25.22    385
25.24    358
25.26    267
25.28    222
25.3     173
25.32    241
25.34    233
25.36    212
25.38    207
25.4     298
25.42    334
25.44    330
25.46    277
25.48    253
25.5     334
25.52    417
25.54    391
25.56    372
25.58    413
25.6     469
25.62    483
25.64    469
25.66    368
25.68    268
25.7     284
25.72    283
25.74    301
25.76    281
25.78    319
25.8     274
25.82    278
25.84    313
25.86    339
25.88    319
25.9     338
25.92    303
25.94    264
25.96    230
25.98    246
26.0     244
26.02    283
26.04    321
26.06    337
26.08    311
26.1     288
26.12    233
26.14    194
26.16    180
26.18    200
26.2     261
26.22    302
26.24    371
26.26    410
26.28    392
26.3     351
26.32    287
26.34    289
26.36    258
26.38    262
26.4     272
26.42    228
26.44    233
26.46    265
26.48    220
26.5     227
26.52    247
26.54    340
26.56    392
26.58    416
26.6     382
26.62    330
26.64    288
26.66    296
26.68    256
26.7     256
26.72    255
26.74    302
26.76    285
26.78    287
26.8     252
26.82    234
26.84    244
26.86    273
26.88    247
26.9     237
26.92    226
26.94    243
26.96    222
26.98    178
27.0     101
27.02    133
27.04    219
27.06    352
27.08    393
27.1     419
27.12    374
27.14    305
27.16    250
27.18    177
27.2     159
27.22    192
27.24    237
27.26    354
27.28    408
27.3     387
27.32    321
27.34    209
27.36    165
27.38    119
27.4     104
27.42    116
27.44    223
27.46    318
27.48    394
27.5     381
27.52    368
27.54    324
27.56    275
27.58    208
27.6     217
27.62    255
27.64    282
27.66    294
27.68    278
27.7     257
27.72    290
27.74    334
27.76    355
27.78    350
27.8     372
27.82    360
27.84    302
27.86    271
27.88    208
27.9     185
27.92    185
27.94    183
27.96    182
27.98    162
28.0     187
28.02    225
28.04    246
28.06    280
28.08    313
28.1     291
28.12    300
28.14    312
28.16    307
28.18    311
28.2     328
28.22    329
28.24    381
28.26    359
28.28    294
28.3     246
28.32    207
28.34    179
28.36    137
28.38    157
28.4     201
28.42    215
28.44    328
28.46    328
28.48    322
28.5     353
28.52    307
28.54    322
28.56    313
28.58    282
28.6     245
28.62    192
28.64    162
28.66    192
28.68    201
28.7     186
28.72    215
28.74    246
28.76    279
28.78    240
28.8     209
28.82    164
28.84    171
28.86    255
28.88    274
28.9     295
28.92    294
28.94    278
28.96    308
28.98    242
29.0     214
29.02    230
29.04    286
29.06    321
29.08    406
29.1     354
29.12    315
29.14    353
29.16    324
29.18    312
29.2     325
29.22    295
29.24    331
29.26    300
29.28    300
29.3     239
29.32    233
29.34    265
29.36    239
29.38    236
29.4     208
29.42    167
29.44    184
29.46    187
29.48    238
29.5     296
29.52    298
29.54    304
29.56    315
29.58    266
29.6     282
29.62    278
29.64    271
29.66    292
29.68    276
29.7     226
29.72    173
29.74    129
29.76    204
29.78    254
29.8     301
29.82    332
29.84    356
29.86    344
29.88    335
29.9     305
29.92    310
29.94    365
29.96    435
29.98    474
30.0     444
30.02    410
30.04    409
30.06    370
30.08    343
30.1     326
30.12    315
30.14    361
30.16    325
30.18    297
30.2     292
30.22    337
30.24    369
30.26    351
30.28    350
30.3     343
30.32    307
30.34    262
30.36    159
30.38    142
30.4     173
30.42    253
30.44    270
30.46    300
30.48    334
30.5     323
30.52    313
30.54    297
30.56    296
30.58    378
30.6     359
30.62    324
30.64    311
30.66    276
30.68    267
30.7     254
30.72    240
30.74    258
30.76    271
30.78    322
30.8     293
30.82    286
30.84    333
30.86    301
30.88    263
30.9     222
30.92    166
30.94    216
30.96    243
30.98    309
31.0     336
31.02    392
31.04    417
31.06    379
31.08    310
31.1     240
31.12    192
31.14    153
31.16    128
31.18    111
31.2     110
31.22    151
31.24    175
31.26    209
31.28    133
31.3     117
31.32    121
31.34    79
31.36    130
31.38    152
31.4     166
31.42    217
31.44    281
31.46    313
31.48    316
31.5     362
31.52    370
31.54    374
31.56    327
31.58    277
31.6     220
31.62    247
31.64    312
31.66    341
31.68    381
31.7     344
31.72    286
31.74    269
31.76    233
31.78    231
31.8     245
31.82    273
31.84    264
31.86    248
31.88    247
31.9     176
31.92    191
31.94    222
31.96    308
31.98    308
32.0     305
32.02    292
32.04    201
32.06    161
32.08    140
32.1     115
32.12    166
32.14    172
32.16    259
32.18    331
32.2     325
32.22    322
32.24    279
32.26    255
32.28    293
32.3     333
32.32    342
32.34    327
32.36    375
32.38    366
32.4     283
32.42    289
32.44    194
32.46    164
32.48    204
32.5     225
32.52    294
32.54    329
32.56    399
32.58    441
32.6     468
32.62    520
32.64    422
32.66    367
32.68    313
32.7     266
32.72    301
32.74    346
32.76    442
32.78    549
32.8     632
32.82    616
32.84    596
32.86    565
32.88    473
32.9     405
32.92    339
32.94    270
32.96    317
32.98    343
33.0     386
33.02    448
33.04    505
33.06    632
33.08    685
33.1     708
33.12    766
33.14    770
33.16    771
33.18    749
33.2     793
33.22    899
33.24    1011
33.26    1243
33.28    1459
33.3     1686
33.32    1969
33.34    2199
33.36    2555
33.38    2976
33.4     3510
33.42    4212
33.44    5032
33.46    5889
33.48    6719
33.5     7431
33.52    7937
33.54    8238
33.56    8254
33.58    7906
33.6     7266
33.62    6460
33.64    5524
33.66    4557
33.68    3664
33.7     2909
33.72    2311
33.74    1921
33.76    1579
33.78    1369
33.8     1228
33.82    1094
33.84    963
33.86    876
33.88    787
33.9     692
33.92    598
33.94    518
33.96    416
33.98    376
34.0     427
34.02    438
34.04    501
34.06    635
34.08    694
34.1     707
34.12    660
34.14    564
34.16    506
34.18    529
34.2     519
34.22    512
34.24    508
34.26    557
34.28    523
34.3     471
34.32    415
34.34    367
34.36    392
34.38    442
34.4     403
34.42    383
34.44    428
34.46    441
34.48    418
34.5     499
34.52    553
34.54    570
34.56    658
34.58    653
34.6     599
34.62    573
34.64    572
34.66    483
34.68    544
34.7     645
34.72    655
34.74    694
34.76    793
34.78    753
34.8     689
34.82    648
34.84    603
34.86    682
34.88    844
34.9     1009
34.92    1181
34.94    1462
34.96    1731
34.98    2035
35.0     2429
35.02    3023
35.04    3895
35.06    5025
35.08    6176
35.1     7367
35.12    8298
35.14    8890
35.16    8983
35.18    8643
35.2     7858
35.22    6838
35.24    5776
35.26    4687
35.28    3754
35.3     3047
35.32    2418
35.34    2005
35.36    1730
35.38    1502
35.4     1312
35.42    1134
35.44    951
35.46    702
35.48    589
35.5     476
35.52    430
35.54    515
35.56    660
35.58    695
35.6     801
35.62    765
35.64    626
35.66    433
35.68    356
35.7     294
35.72    349
35.74    503
35.76    648
35.78    719
35.8     796
35.82    767
35.84    672
35.86    605
35.88    523
35.9     470
35.92    514
35.94    578
35.96    545
35.98    574
36.0     600
36.02    640
36.04    664
36.06    732
36.08    687
36.1     738
36.12    881
36.14    922
36.16    923
36.18    1060
36.2     1198
36.22    1353
36.24    1622
36.26    1969
36.28    2333
36.3     2904
36.32    3611
36.34    4423
36.36    5532
36.38    7070
36.4     8926
36.42    11138
36.44    13570
36.46    15733
36.48    17434
36.5     18391
36.52    18379
36.54    17440
36.56    15788
36.58    13705
36.6     11414
36.62    9267
36.64    7416
36.66    5842
36.68    4632
36.7     3675
36.72    2978
36.74    2468
36.76    2089
36.78    1742
36.8     1488
36.82    1301
36.84    1165
36.86    1083
36.88    986
36.9     865
36.92    868
36.94    877
36.96    822
36.98    750
37.0     783
37.02    784
37.04    803
37.06    844
37.08    836
37.1     805
37.12    787
37.14    740
37.16    626
37.18    585
37.2     559
37.22    538
37.24    562
37.26    614
37.28    643
37.3     688
37.32    677
37.34    678
37.36    706
37.38    739
37.4     730
37.42    748
37.44    739
37.46    759
37.48    755
37.5     683
37.52    634
37.54    551
37.56    493
37.58    430
37.6     380
37.62    386
37.64    415
37.66    471
37.68    549
37.7     551
37.72    575
37.74    545
37.76    518
37.78    476
37.8     453
37.82    429
37.84    412
37.86    440
37.88    476
37.9     431
37.92    399
37.94    392
37.96    383
37.98    261
38.0     277
38.02    261
38.04    287
38.06    360
38.08    428
38.1     384
38.12    452
38.14    511
38.16    526
38.18    461
38.2     496
38.22    404
38.24    396
38.26    332
38.28    312
38.3     222
38.32    329
38.34    353
38.36    400
38.38    436
38.4     451
38.42    362
38.44    356
38.46    268
38.48    243
38.5     210
38.52    325
38.54    341
38.56    381
38.58    429
38.6     465
38.62    394
38.64    327
38.66    284
38.68    258
38.7     231
38.72    288
38.74    339
38.76    358
38.78    389
38.8     475
38.82    462
38.84    432
38.86    428
38.88    367
38.9     260
38.92    258
38.94    254
38.96    228
38.98    279
39.0     443
39.02    513
39.04    509
39.06    515
39.08    428
39.1     303
39.12    253
39.14    197
39.16    177
39.18    215
39.2     326
39.22    378
39.24    364
39.26    445
39.28    470
39.3     446
39.32    420
39.34    401
39.36    312
39.38    203
39.4     243
39.42    256
39.44    302
39.46    443
39.48    540
39.5     601
39.52    587
39.54    539
39.56    450
39.58    380
39.6     393
39.62    385
39.64    425
39.66    414
39.68    366
39.7     368
39.72    364
39.74    364
39.76    442
39.78    551
39.8     576
39.82    585
39.84    568
39.86    468
39.88    298
39.9     236
39.92    241
39.94    230
39.96    328
39.98    493
40.0     575
40.02    623
40.04    734
40.06    722
40.08    615
40.1     623
40.12    664
40.14    625
40.16    583
40.18    635
40.2     671
40.22    651
40.24    740
40.26    693
40.28    673
40.3     715
40.32    755
40.34    706
40.36    646
40.38    699
40.4     713
40.42    682
40.44    729
40.46    763
40.48    749
40.5     797
40.52    835
40.54    840
40.56    798
40.58    854
40.6     814
40.62    799
40.64    819
40.66    822
40.68    756
40.7     835
40.72    847
40.74    842
40.76    847
40.78    961
40.8     966
40.82    1050
40.84    1156
40.86    1184
40.88    1234
40.9     1317
40.92    1306
40.94    1263
40.96    1279
40.98    1262
41.0     1284
41.02    1384
41.04    1541
41.06    1690
41.08    1901
41.1     2125
41.12    2299
41.14    2508
41.16    2735
41.18    2990
41.2     3308
41.22    3683
41.24    4180
41.26    4804
41.28    5553
41.3     6468
41.32    7635
41.34    9131
41.36    10958
41.38    13415
41.4     16509
41.42    20470
41.44    25436
41.46    31479
41.48    38385
41.5     45648
41.52    52465
41.54    57948
41.56    61211
41.58    61773
41.6     59489
41.62    54656
41.64    48214
41.66    40952
41.68    33831
41.7     27453
41.72    22081
41.74    17776
41.76    14350
41.78    11633
41.8     9526
41.82    7817
41.84    6563
41.86    5539
41.88    4840
41.9     4279
41.92    3833
41.94    3451
41.96    3154
41.98    2821
42.0     2551
42.02    2282
42.04    2112
42.06    2026
42.08    1967
42.1     1796
42.12    1644
42.14    1570
42.16    1483
42.18    1336
42.2     1281
42.22    1255
42.24    1311
42.26    1350
42.28    1332
42.3     1283
42.32    1190
42.34    1181
42.36    1084
42.38    998
42.4     987
42.42    977
42.44    943
42.46    873
42.48    786
42.5     799
42.52    747
42.54    813
42.56    814
42.58    860
42.6     977
42.62    993
42.64    949
42.66    853
42.68    798
42.7     698
42.72    516
42.74    514
42.76    541
42.78    633
42.8     768
42.82    844
42.84    877
42.86    822
42.88    733
42.9     624
42.92    510
42.94    511
42.96    559
42.98    651
43.0     746
43.02    810
43.04    856
43.06    810
43.08    666
43.1     663
43.12    596
43.14    567
43.16    613
43.18    666
43.2     768
43.22    780
43.24    823
43.26    746
43.28    645
43.3     601
43.32    547
43.34    498
43.36    493
43.38    534
43.4     592
43.42    564
43.44    612
43.46    621
43.48    620
43.5     602
43.52    663
43.54    659
43.56    633
43.58    597
43.6     504
43.62    501
43.64    547
43.66    537
43.68    509
43.7     570
43.72    607
43.74    575
43.76    540
43.78    513
43.8     495
43.82    557
43.84    605
43.86    632
43.88    631
43.9     597
43.92    524
43.94    479
43.96    470
43.98    481
44.0     442
44.02    432
44.04    451
44.06    467
44.08    436
44.1     390
44.12    415
44.14    464
44.16    529
44.18    575
44.2     572
44.22    587
44.24    615
44.26    600
44.28    554
44.3     519
44.32    515
44.34    524
44.36    469
44.38    414
44.4     427
44.42    407
44.44    418
44.46    400
44.48    371
44.5     410
44.52    407
44.54    437
44.56    418
44.58    465
44.6     486
44.62    487
44.64    528
44.66    525
44.68    520
44.7     468
44.72    438
44.74    458
44.76    480
44.78    555
44.8     516
44.82    615
44.84    681
44.86    717
44.88    782
44.9     809
44.92    921
44.94    973
44.96    1078
44.98    1235
45.0     1275
45.02    1416
45.04    1417
45.06    1420
45.08    1445
45.1     1390
45.12    1330
45.14    1182
45.16    1090
45.18    1021
45.2     898
45.22    840
45.24    694
45.26    670
45.28    622
45.3     571
45.32    555
45.34    536
45.36    536
45.38    522
45.4     574
45.42    552
45.44    502
45.46    523
45.48    439
45.5     428
45.52    400
45.54    435
45.56    405
45.58    390
45.6     475
45.62    414
45.64    463
45.66    450
45.68    381
45.7     380
45.72    375
45.74    393
45.76    342
45.78    330
45.8     384
45.82    387
45.84    404
45.86    398
45.88    399
45.9     438
45.92    456
45.94    443
45.96    446
45.98    460
46.0     486
46.02    425
46.04    357
46.06    356
46.08    357
46.1     342
46.12    344
46.14    395
46.16    489
46.18    548
46.2     559
46.22    536
46.24    530
46.26    503
46.28    455
46.3     360
46.32    340
46.34    289
46.36    259
46.38    258
46.4     277
46.42    365
46.44    387
46.46    481
46.48    570
46.5     618
46.52    632
46.54    499
46.56    461
46.58    383
46.6     318
46.62    301
46.64    248
46.66    347
46.68    394
46.7     408
46.72    396
46.74    368
46.76    381
46.78    358
46.8     395
46.82    444
46.84    445
46.86    495
46.88    468
46.9     449
46.92    414
46.94    369
46.96    352
46.98    386
47.0     447
47.02    455
47.04    425
47.06    417
47.08    427
47.1     426
47.12    369
47.14    339
47.16    352
47.18    403
47.2     367
47.22    316
47.24    275
47.26    313
47.28    388
47.3     428
47.32    499
47.34    562
47.36    601
47.38    584
47.4     508
47.42    429
47.44    379
47.46    370
47.48    324
47.5     386
47.52    442
47.54    400
47.56    401
47.58    390
47.6     391
47.62    348
47.64    368
47.66    475
47.68    518
47.7     651
47.72    659
47.74    575
47.76    602
47.78    572
47.8     417
47.82    362
47.84    280
47.86    311
47.88    270
47.9     298
47.92    283
47.94    321
47.96    433
47.98    483
48.0     474
48.02    504
48.04    484
48.06    517
48.08    474
48.1     419
48.12    383
48.14    412
48.16    445
48.18    436
48.2     446
48.22    517
48.24    565
48.26    532
48.28    498
48.3     447
48.32    404
48.34    322
48.36    236
48.38    164
48.4     233
48.42    324
48.44    353
48.46    369
48.48    498
48.5     565
48.52    533
48.54    444
48.56    339
48.58    264
48.6     222
48.62    171
48.64    151
48.66    223
48.68    327
48.7     433
48.72    429
48.74    424
48.76    470
48.78    494
48.8     450
48.82    433
48.84    429
48.86    449
48.88    410
48.9     350
48.92    279
48.94    243
48.96    326
48.98    354
49.0     343
49.02    415
49.04    471
49.06    478
49.08    424
49.1     360
49.12    376
49.14    374
49.16    410
49.18    382
49.2     420
49.22    447
49.24    496
49.26    480
49.28    429
49.3     463
49.32    522
49.34    490
49.36    477
49.38    445
49.4     495
49.42    443
49.44    451
49.46    360
49.48    376
49.5     405
49.52    412
49.54    365
49.56    383
49.58    395
49.6     417
49.62    428
49.64    414
49.66    380
49.68    380
49.7     341
49.72    319
49.74    282
49.76    281
49.78    230
49.8     264
49.82    329
49.84    336
49.86    339
49.88    338
49.9     423
49.92    492
49.94    495
49.96    497
49.98    469
50.0     543
50.02    542
50.04    436
50.06    372
50.08    359
50.1     329
50.12    279
50.14    184
50.16    189
50.18    222
50.2     323
50.22    394
50.24    428
50.26    550
50.28    579
50.3     543
50.32    507
50.34    451
50.36    426
50.38    376
50.4     345
50.42    370
50.44    374
50.46    379
50.48    379
50.5     401
50.52    459
50.54    565
50.56    540
50.58    546
50.6     492
50.62    448
50.64    380
50.66    336
50.68    264
50.7     243
50.72    308
50.74    385
50.76    403
50.78    437
50.8     427
50.82    437
50.84    480
50.86    435
50.88    286
50.9     200
50.92    185
50.94    159
50.96    161
50.98    160
51.0     243
51.02    341
51.04    458
51.06    471
51.08    473
51.1     462
51.12    429
51.14    406
51.16    390
51.18    354
51.2     388
51.22    374
51.24    394
51.26    459
51.28    443
51.3     417
51.32    466
51.34    525
51.36    530
51.38    468
51.4     445
51.42    425
51.44    423
51.46    442
51.48    380
51.5     368
51.52    480
51.54    504
51.56    473
51.58    416
51.6     414
51.62    438
51.64    466
51.66    464
51.68    512
51.7     551
51.72    632
51.74    637
51.76    591
51.78    511
51.8     535
51.82    496
51.84    455
51.86    375
51.88    408
51.9     427
51.92    487
51.94    454
51.96    468
51.98    464
52.0     524
52.02    461
52.04    405
52.06    339
52.08    373
52.1     423
52.12    490
52.14    516
52.16    617
52.18    612
52.2     620
52.22    570
52.24    527
52.26    472
52.28    441
52.3     386
52.32    398
52.34    482
52.36    526
52.38    524
52.4     520
52.42    503
52.44    515
52.46    465
52.48    433
52.5     419
52.52    421
52.54    516
52.56    560
52.58    568
52.6     580
52.62    576
52.64    520
52.66    480
52.68    433
52.7     368
52.72    306
52.74    400
52.76    432
52.78    517
52.8     562
52.82    566
52.84    575
52.86    637
52.88    598
52.9     542
52.92    557
52.94    586
52.96    625
52.98    662
53.0     689
53.02    742
53.04    851
53.06    928
53.08    971
53.1     964
53.12    1020
53.14    1008
53.16    989
53.18    1050
53.2     1140
53.22    1296
53.24    1477
53.26    1685
53.28    1940
53.3     2259
53.32    2589
53.34    2985
53.36    3378
53.38    3908
53.4     4409
53.42    4910
53.44    5226
53.46    5478
53.48    5502
53.5     5409
53.52    5088
53.54    4634
53.56    4064
53.58    3598
53.6     3090
53.62    2683
53.64    2290
53.66    2031
53.68    1788
53.7     1650
53.72    1476
53.74    1320
53.76    1219
53.78    1135
53.8     979
53.82    908
53.84    819
53.86    824
53.88    771
53.9     706
53.92    705
53.94    698
53.96    709
53.98    693
54.0     651
54.02    595
54.04    594
54.06    671
54.08    588
54.1     555
54.12    567
54.14    552
54.16    601
54.18    592
54.2     552
54.22    546
54.24    513
54.26    529
54.28    442
54.3     400
54.32    390
54.34    368
54.36    415
54.38    454
54.4     493
54.42    506
54.44    487
54.46    500
54.48    467
54.5     424
54.52    413
54.54    390
54.56    402
54.58    412
54.6     420
54.62    413
54.64    470
54.66    477
54.68    447
54.7     423
54.72    407
54.74    370
54.76    332
54.78    309
54.8     292
54.82    344
54.84    450
54.86    499
54.88    526
54.9     546
54.92    552
54.94    579
54.96    608
54.98    556
55.0     507
55.02    513
55.04    516
55.06    485
55.08    407
55.1     320
55.12    292
55.14    311
55.16    355
55.18    337
55.2     348
55.22    380
55.24    474
55.26    517
55.28    509
55.3     468
55.32    445
55.34    438
55.36    505
55.38    497
55.4     466
55.42    472
55.44    565
55.46    611
55.48    626
55.5     562
55.52    537
55.54    592
55.56    642
55.58    633
55.6     500
55.62    481
55.64    524
55.66    532
55.68    502
55.7     414
55.72    463
55.74    493
55.76    497
55.78    507
55.8     426
55.82    509
55.84    552
55.86    572
55.88    536
55.9     566
55.92    603
55.94    614
55.96    617
55.98    591
56.0     508
56.02    447
56.04    342
56.06    276
56.08    202
56.1     247
56.12    218
56.14    301
56.16    381
56.18    487
56.2     537
56.22    539
56.24    543
56.26    578
56.28    525
56.3     453
56.32    368
56.34    346
56.36    379
56.38    415
56.4     394
56.42    393
56.44    461
56.46    521
56.48    480
56.5     395
56.52    475
56.54    491
56.56    550
56.58    572
56.6     576
56.62    543
56.64    577
56.66    600
56.68    488
56.7     404
56.72    429
56.74    368
56.76    428
56.78    495
56.8     497
56.82    504
56.84    577
56.86    595
56.88    570
56.9     573
56.92    474
56.94    454
56.96    490
56.98    512
57.0     498
57.02    566
57.04    589
57.06    563
57.08    640
57.1     642
57.12    613
57.14    685
57.16    680
57.18    654
57.2     621
57.22    642
57.24    549
57.26    452
57.28    394
57.3     361
57.32    389
57.34    437
57.36    433
57.38    442
57.4     536
57.42    629
57.44    625
57.46    661
57.48    692
57.5     760
57.52    781
57.54    786
57.56    772
57.58    725
57.6     764
57.62    759
57.64    706
57.66    753
57.68    800
57.7     872
57.72    927
57.74    1006
57.76    1019
57.78    1103
57.8     1195
57.82    1216
57.84    1208
57.86    1309
57.88    1388
57.9     1545
57.92    1699
57.94    1925
57.96    2155
57.98    2464
58.0     2705
58.02    2962
58.04    3295
58.06    3692
58.08    4151
58.1     4625
58.12    5259
58.14    6042
58.16    6993
58.18    7990
58.2     8987
58.22    9955
58.24    10818
58.26    11468
58.28    11758
58.3     11626
58.32    11232
58.34    10507
58.36    9650
58.38    8655
58.4     7595
58.42    6567
58.44    5726
58.46    4931
58.48    4283
58.5     3815
58.52    3361
58.54    2973
58.56    2653
58.58    2436
58.6     2216
58.62    2038
58.64    1859
58.66    1666
58.68    1605
58.7     1518
58.72    1404
58.74    1245
58.76    1074
58.78    972
58.8     879
58.82    812
58.84    704
58.86    726
58.88    770
58.9     858
58.92    964
58.94    985
58.96    946
58.98    919
59.0     895
59.02    805
59.04    685
59.06    616
59.08    564
59.1     540
59.12    569
59.14    514
59.16    515
59.18    493
59.2     525
59.22    519
59.24    590
59.26    685
59.28    700
59.3     732
59.32    809
59.34    777
59.36    790
59.38    716
59.4     640
59.42    533
59.44    597
59.46    557
59.48    532
59.5     538
59.52    524
59.54    572
59.56    578
59.58    564
59.6     502
59.62    506
59.64    563
59.66    558
59.68    655
59.7     589
59.72    543
59.74    549
59.76    520
59.78    406
59.8     366
59.82    362
59.84    383
59.86    515
59.88    642
59.9     642
59.92    660
59.94    712
59.96    757
59.98    644
60.0     562
60.02    455
60.04    431
60.06    462
60.08    474
60.1     418
60.12    391
60.14    493
60.16    530
60.18    558
60.2     554
60.22    582
60.24    582
60.26    598
60.28    601
60.3     518
60.32    468
60.34    529
60.36    485
60.38    501
60.4     519
60.42    526
60.44    544
60.46    581
60.48    577
60.5     513
60.52    503
60.54    546
60.56    490
60.58    477
60.6     502
60.62    465
60.64    492
60.66    512
60.68    499
60.7     463
60.72    453
60.74    492
60.76    504
60.78    538
60.8     558
60.82    532
60.84    515
60.86    547
60.88    521
60.9     447
60.92    372
60.94    339
60.96    323
60.98    358
61.0     382
61.02    420
61.04    463
61.06    513
61.08    563
61.1     568
61.12    546
61.14    545
61.16    541
61.18    543
61.2     526
61.22    515
61.24    493
61.26    418
61.28    387
61.3     399
61.32    417
61.34    506
61.36    566
61.38    680
61.4     681
61.42    735
61.44    768
61.46    750
61.48    650
61.5     619
61.52    576
61.54    540
61.56    532
61.58    573
61.6     522
61.62    572
61.64    660
61.66    723
61.68    797
61.7     876
61.72    938
61.74    944
61.76    1031
61.78    1138
61.8     1184
61.82    1241
61.84    1313
61.86    1482
61.88    1756
61.9     1976
61.92    2276
61.94    2651
61.96    3132
61.98    3678
62.0     4313
62.02    5039
62.04    5818
62.06    6774
62.08    7832
62.1     8835
62.12    9734
62.14    10497
62.16    11010
62.18    11244
62.2     11220
62.22    10934
62.24    10467
62.26    9931
62.28    9232
62.3     8557
62.32    7784
62.34    7048
62.36    6358
62.38    5723
62.4     5094
62.42    4509
62.44    4059
62.46    3646
62.48    3141
62.5     2841
62.52    2443
62.54    2125
62.56    1906
62.58    1756
62.6     1549
62.62    1378
62.64    1309
62.66    1256
62.68    1151
62.7     1132
62.72    1032
62.74    960
62.76    880
62.78    848
62.8     760
62.82    669
62.84    618
62.86    614
62.88    610
62.9     695
62.92    721
62.94    749
62.96    703
62.98    737
63.0     700
63.02    664
63.04    648
63.06    670
63.08    622
63.1     623
63.12    572
63.14    565
63.16    541
63.18    542
63.2     539
63.22    556
63.24    556
63.26    572
63.28    572
63.3     530
63.32    539
63.34    542
63.36    580
63.38    531
63.4     590
63.42    591
63.44    561
63.46    561
63.48    632
63.5     613
63.52    618
63.54    553
63.56    527
63.58    470
63.6     531
63.62    524
63.64    483
63.66    490
63.68    480
63.7     466
63.72    387
63.74    415
63.76    377
63.78    357
63.8     370
63.82    406
63.84    430
63.86    495
63.88    504
63.9     604
63.92    599
63.94    673
63.96    596
63.98    556
64.0     542
64.02    490
64.04    465
64.06    423
64.08    400
64.1     454
64.12    433
64.14    442
64.16    440
64.18    473
64.2     519
64.22    492
64.24    505
64.26    503
64.28    458
64.3     460
64.32    421
64.34    368
64.36    403
64.38    415
64.4     451
64.42    545
64.44    624
64.46    767
64.48    802
64.5     881
64.52    934
64.54    931
64.56    962
64.58    939
64.6     1015
64.62    1138
64.64    1253
64.66    1425
64.68    1613
64.7     1848
64.72    2158
64.74    2402
64.76    2704
64.78    2941
64.8     3144
64.82    3220
64.84    3257
64.86    3195
64.88    3135
64.9     2950
64.92    2870
64.94    2712
64.96    2603
64.98    2452
65.0     2309
65.02    2191
65.04    2072
65.06    1935
65.08    1814
65.1     1643
65.12    1540
65.14    1452
65.16    1347
65.18    1198
65.2     1056
65.22    942
65.24    829
65.26    684
65.28    566
65.3     542
65.32    485
65.34    505
65.36    515
65.38    494
65.4     489
65.42    519
65.44    595
65.46    658
65.48    707
65.5     733
65.52    711
65.54    637
65.56    612
65.58    598
65.6     595
65.62    551
65.64    495
65.66    488
65.68    474
65.7     402
65.72    384
65.74    296
65.76    299
65.78    312
65.8     398
65.82    458
65.84    492
65.86    487
65.88    547
65.9     522
65.92    526
65.94    527
65.96    517
65.98    465
66.0     430
66.02    378
66.04    362
66.06    302
66.08    324
66.1     295
66.12    339
66.14    393
66.16    475
66.18    529
66.2     561
66.22    589
66.24    678
66.26    716
66.28    685
66.3     639
66.32    604
66.34    502
66.36    445
66.38    390
66.4     375
66.42    352
66.44    312
66.46    332
66.48    325
66.5     356
66.52    413
66.54    456
66.56    539
66.58    577
66.6     636
66.62    684
66.64    654
66.66    713
66.68    672
66.7     622
66.72    535
66.74    464
66.76    396
66.78    264
66.8     170
66.82    111
66.84    65
66.86    139
66.88    218
66.9     299
66.92    411
66.94    558
66.96    666
66.98    727
67.0     705
67.02    746
67.04    707
67.06    663
67.08    592
67.1     486
67.12    431
67.14    364
67.16    345
67.18    348
67.2     368
67.22    396
67.24    423
67.26    438
67.28    437
67.3     443
67.32    439
67.34    431
67.36    470
67.38    453
67.4     427
67.42    389
67.44    467
67.46    456
67.48    474
67.5     490
67.52    458
67.54    502
67.56    522
67.58    512
67.6     491
67.62    509
67.64    504
67.66    475
67.68    437
67.7     465
67.72    452
67.74    517
67.76    488
67.78    530
67.8     504
67.82    578
67.84    490
67.86    448
67.88    417
67.9     453
67.92    444
67.94    448
67.96    415
67.98    429
68.0     404
68.02    467
68.04    390
68.06    418
68.08    462
68.1     511
68.12    560
68.14    630
68.16    646
68.18    681
68.2     625
68.22    579
68.24    575
68.26    537
68.28    481
68.3     426
68.32    424
68.34    436
68.36    429
68.38    530
68.4     600
68.42    703
68.44    814
68.46    861
68.48    875
68.5     819
68.52    789
68.54    732
68.56    704
68.58    693
68.6     705
68.62    767
68.64    846
68.66    929
68.68    1030
68.7     1102
68.72    1196
68.74    1329
68.76    1398
68.78    1495
68.8     1701
68.82    1943
68.84    2159
68.86    2349
68.88    2512
68.9     2629
68.92    2749
68.94    2787
68.96    2780
68.98    2843
69.0     2846
69.02    2767
69.04    2671
69.06    2506
69.08    2318
69.1     2143
69.12    1986
69.14    1804
69.16    1615
69.18    1458
69.2     1314
69.22    1232
69.24    1212
69.26    1175
69.28    1183
69.3     1131
69.32    1092
69.34    1056
69.36    926
69.38    907
69.4     882
69.42    814
69.44    742
69.46    683
69.48    624
69.5     532
69.52    502
69.54    488
69.56    434
69.58    471
69.6     512
69.62    539
69.64    587
69.66    599
69.68    601
69.7     591
69.72    579
69.74    569
69.76    565
69.78    600
69.8     635
69.82    587
69.84    542
69.86    454
69.88    484
69.9     518
69.92    523
69.94    577
69.96    559
69.98    578
70.0     586
70.02    572
70.04    565
70.06    550
70.08    588
70.1     607
70.12    556
70.14    548
70.16    497
70.18    493
70.2     520
70.22    568
70.24    596
70.26    653
70.28    754
70.3     851
70.32    961
70.34    1108
70.36    1201
70.38    1238
70.4     1304
70.42    1367
70.44    1377
70.46    1431
70.48    1442
70.5     1430
70.52    1422
70.54    1420
70.56    1418
70.58    1460
70.6     1490
70.62    1466
70.64    1428
70.66    1445
70.68    1413
70.7     1319
70.72    1218
70.74    1158
70.76    1056
70.78    992
70.8     889
70.82    795
70.84    740
70.86    681
70.88    626
70.9     548
70.92    526
70.94    461
70.96    473
70.98    551
71.0     603
71.02    643
71.04    651
71.06    617
71.08    631
71.1     637
71.12    627
71.14    654
71.16    650
71.18    633
71.2     598
71.22    542
71.24    492
71.26    532
71.28    537
71.3     552
71.32    557
71.34    573
71.36    538
71.38    567
71.4     547
71.42    522
71.44    559
71.46    601
71.48    557
71.5     547
71.52    514
71.54    573
71.56    621
71.58    625
71.6     613
71.62    621
71.64    650
71.66    613
71.68    556
71.7     523
71.72    549
71.74    571
71.76    496
71.78    459
71.8     438
71.82    429
71.84    465
71.86    445
71.88    457
71.9     494
71.92    513
71.94    463
71.96    464
71.98    496
72.0     584
72.02    664
72.04    708
72.06    744
72.08    827
72.1     857
72.12    883
72.14    925
72.16    1005
72.18    1068
72.2     1130
72.22    1172
72.24    1170
72.26    1202
72.28    1275
72.3     1326
72.32    1418
72.34    1554
72.36    1702
72.38    1820
72.4     2012
72.42    2236
72.44    2452
72.46    2728
72.48    3019
72.5     3245
72.52    3477
72.54    3678
72.56    3757
72.58    3764
72.6     3731
72.62    3648
72.64    3521
72.66    3333
72.68    3087
72.7     2872
72.72    2664
72.74    2434
72.76    2153
72.78    1915
72.8     1737
72.82    1618
72.84    1509
72.86    1337
72.88    1258
72.9     1184
72.92    1118
72.94    1011
72.96    928
72.98    888
73.0     871
73.02    818
73.04    774
73.06    728
73.08    748
73.1     727
73.12    699
73.14    652
73.16    703
73.18    716
73.2     717
73.22    723
73.24    742
73.26    754
73.28    764
73.3     775
73.32    812
73.34    897
73.36    955
73.38    976
73.4     1010
73.42    1087
73.44    1103
73.46    1064
73.48    1068
73.5     1047
73.52    1079
73.54    1056
73.56    988
73.58    970
73.6     938
73.62    888
73.64    859
73.66    789
73.68    772
73.7     698
73.72    670
73.74    645
73.76    649
73.78    658
73.8     646
73.82    690
73.84    729
73.86    710
73.88    701
73.9     716
73.92    810
73.94    864
73.96    881
73.98    878
74.0     895
74.02    880
74.04    816
74.06    765
74.08    782
74.1     916
74.12    1011
74.14    1013
74.16    1107
74.18    1210
74.2     1342
74.22    1418
74.24    1604
74.26    1709
74.28    1883
74.3     2035
74.32    1994
74.34    1951
74.36    1947
74.38    1882
74.4     1849
74.42    1743
74.44    1684
74.46    1575
74.48    1539
74.5     1466
74.52    1372
74.54    1414
74.56    1395
74.58    1398
74.6     1423
74.62    1421
74.64    1466
74.66    1574
74.68    1640
74.7     1671
74.72    1747
74.74    1787
74.76    1778
74.78    1773
74.8     1772
74.82    1777
74.84    1782
74.86    1821
74.88    1794
74.9     1752
74.92    1716
74.94    1576
74.96    1557
74.98    1451
75.0     1370
75.02    1262
75.04    1149
75.06    1083
75.08    954
75.1     904
75.12    903
75.14    867
75.16    894
75.18    823
75.2     805
75.22    807
75.24    739
75.26    704
75.28    628
75.3     655
75.32    698
75.34    685
75.36    629
75.38    625
75.4     602
75.42    582
75.44    460
75.46    373
75.48    324
75.5     323
75.52    343
75.54    385
75.56    406
75.58    505
75.6     522
75.62    546
75.64    550
75.66    573
75.68    676
75.7     688
75.72    657
75.74    665
75.76    592
75.78    569
75.8     558
75.82    536
75.84    519
75.86    547
75.88    586
75.9     467
75.92    398
75.94    448
75.96    372
75.98    472
76.0     531
76.02    581
76.04    640
76.06    665
76.08    687
76.1     614
76.12    671
76.14    665
76.16    574
76.18    606
76.2     545
76.22    556
76.24    537
76.26    467
76.28    469
76.3     396
76.32    404
76.34    320
76.36    354
76.38    355
76.4     383
76.42    433
76.44    450
76.46    511
76.48    466
76.5     481
76.52    516
76.54    504
76.56    597
76.58    595
76.6     559
76.62    527
76.64    529
76.66    519
76.68    466
76.7     559
76.72    587
76.74    523
76.76    554
76.78    510
76.8     499
76.82    531
76.84    538
76.86    576
76.88    657
76.9     700
76.92    661
76.94    608
76.96    611
76.98    634
77.0     656
77.02    629
77.04    590
77.06    686
77.08    702
77.1     737
77.12    728
77.14    777
77.16    850
77.18    947
77.2     962
77.22    986
77.24    1038
77.26    1140
77.28    1131
77.3     1219
77.32    1261
77.34    1377
77.36    1541
77.38    1700
77.4     1873
77.42    2108
77.44    2294
77.46    2532
77.48    2696
77.5     2912
77.52    3153
77.54    3384
77.56    3574
77.58    3716
77.6     3830
77.62    3910
77.64    3870
77.66    3856
77.68    3764
77.7     3619
77.72    3516
77.74    3355
77.76    3195
77.78    2993
77.8     2785
77.82    2533
77.84    2294
77.86    2056
77.88    1851
77.9     1644
77.92    1441
77.94    1293
77.96    1149
77.98    1024
78.0     932
78.02    845
78.04    867
78.06    868
78.08    877
78.1     914
78.12    914
78.14    909
78.16    848
78.18    778
78.2     770
78.22    743
78.24    770
78.26    740
78.28    677
78.3     657
78.32    625
78.34    555
78.36    448
78.38    422
78.4     428
78.42    420
78.44    447
78.46    479
78.48    531
78.5     572
78.52    641
78.54    694
78.56    652
78.58    631
78.6     553
78.62    545
78.64    554
78.66    568
78.68    570
78.7     561
78.72    582
78.74    550
78.76    454
78.78    425
78.8     419
78.82    437
78.84    486
78.86    498
78.88    454
78.9     432
78.92    413
78.94    436
78.96    467
78.98    521
79.0     512
79.02    519
79.04    569
79.06    590
79.08    568
79.1     560
79.12    621
79.14    616
79.16    502
79.18    429
79.2     360
79.22    393
79.24    403
79.26    428
79.28    457
79.3     488
79.32    544
79.34    467
79.36    360
79.38    376
79.4     415
79.42    499
79.44    506
79.46    478
79.48    565
79.5     542
79.52    525
79.54    554
79.56    517
79.58    476
79.6     528
79.62    478
79.64    441
79.66    398
79.68    489
79.7     452
79.72    420
79.74    521
79.76    543
79.78    508
79.8     549
79.82    545
79.84    551
79.86    576
79.88    625
79.9     630
79.92    572
79.94    634
79.96    630
79.98    589
80.0     597
80.02    675
80.04    655
80.06    637
80.08    631
80.1     605
80.12    550
80.14    519
80.16    519
80.18    548
80.2     593
80.22    614
80.24    605
80.26    551
80.28    538
80.3     524
80.32    490
80.34    466
80.36    480
80.38    492
80.4     474
80.42    484
80.44    503
80.46    497
80.48    485
80.5     531
80.52    547
80.54    552
80.56    577
80.58    563
80.6     559
80.62    542
80.64    528
80.66    435
80.68    357
80.7     349
80.72    361
80.74    336
80.76    380
80.78    383
80.8     421
80.82    418
80.84    484
80.86    480
80.88    472
80.9     518
80.92    576
80.94    575
80.96    615
80.98    620
81.0     589
81.02    557
81.04    500
81.06    469
81.08    405
81.1     384
81.12    432
81.14    468
81.16    494
81.18    467
81.2     454
81.22    416
81.24    393
81.26    420
81.28    382
81.3     348
81.32    313
81.34    349
81.36    247
81.38    149
81.4     182
81.42    231
81.44    354
81.46    408
81.48    391
81.5     449
81.52    464
81.54    566
81.56    530
81.58    543
81.6     553
81.62    606
81.64    668
81.66    564
81.68    486
81.7     464
81.72    448
81.74    456
81.76    446
81.78    416
81.8     385
81.82    400
81.84    448
81.86    340
81.88    378
81.9     432
81.92    531
81.94    535
81.96    557
81.98    540
82.0     511
82.02    433
82.04    407
82.06    325
82.08    351
82.1     433
82.12    482
82.14    430
82.16    440
82.18    430
82.2     424
82.22    394
82.24    386
82.26    350
82.28    349
82.3     360
82.32    377
82.34    327
82.36    348
82.38    372
82.4     449
82.42    493
82.44    498
82.46    520
82.48    572
82.5     502
82.52    548
82.54    548
82.56    554
82.58    530
82.6     557
82.62    523
82.64    497
82.66    515
82.68    537
82.7     514
82.72    606
82.74    614
82.76    607
82.78    567
82.8     540
82.82    490
82.84    438
82.86    382
82.88    405
82.9     420
82.92    399
82.94    359
82.96    345
82.98    347
83.0     422
83.02    434
83.04    431
83.06    470
83.08    533
83.1     577
83.12    533
83.14    460
83.16    465
83.18    511
83.2     554
83.22    537
83.24    511
83.26    505
83.28    471
83.3     467
83.32    389
83.34    315
83.36    339
83.38    364
83.4     403
83.42    426
83.44    403
83.46    444
83.48    447
83.5     486
83.52    506
83.54    491
83.56    469
83.58    483
83.6     498
83.62    442
83.64    415
83.66    445
83.68    488
83.7     516
83.72    494
83.74    447
83.76    408
83.78    385
83.8     370
83.82    379
83.84    445
83.86    491
83.88    567
83.9     575
83.92    538
83.94    472
83.96    491
83.98    449
84.0     444
84.02    483
84.04    497
84.06    457
84.08    408
84.1     399
84.12    387
84.14    371
84.16    435
84.18    445
84.2     484
84.22    456
84.24    473
84.26    439
84.28    377
84.3     448
84.32    479
84.34    510
84.36    524
84.38    524
84.4     479
84.42    431
84.44    428
84.46    357
84.48    314
84.5     350
84.52    333
84.54    399
84.56    398
84.58    349
84.6     338
84.62    366
84.64    422
84.66    438
84.68    480
84.7     511
84.72    539
84.74    634
84.76    655
84.78    674
84.8     637
84.82    658
84.84    736
84.86    779
84.88    810
84.9     749
84.92    713
84.94    614
84.96    536
84.98    445
85.0     306
85.02    256
85.04    236
85.06    317
85.08    352
85.1     339
85.12    306
85.14    274
85.16    299
85.18    308
85.2     391
85.22    416
85.24    487
85.26    577
85.28    635
85.3     631
85.32    562
85.34    564
85.36    523
85.38    555
85.4     618
85.42    585
85.44    567
85.46    529
85.48    538
85.5     503
85.52    501
85.54    483
85.56    420
85.58    441
85.6     431
85.62    333
85.64    256
85.66    200
85.68    324
85.7     440
85.72    521
85.74    543
85.76    523
85.78    503
85.8     532
85.82    490
85.84    420
85.86    392
85.88    481
85.9     551
85.92    590
85.94    552
85.96    466
85.98    483
86.0     526
86.02    504
86.04    511
86.06    527
86.08    549
86.1     614
86.12    637
86.14    623
86.16    550
86.18    615
86.2     607
86.22    660
86.24    759
86.26    761
86.28    781
86.3     787
86.32    804
86.34    875
86.36    894
86.38    949
86.4     922
86.42    1036
86.44    1103
86.46    1074
86.48    1025
86.5     958
86.52    944
86.54    966
86.56    1017
86.58    1060
86.6     1002
86.62    1037
86.64    966
86.66    919
86.68    840
86.7     694
86.72    636
86.74    622
86.76    687
86.78    704
86.8     606
86.82    589
86.84    535
86.86    597
86.88    609
86.9     588
86.92    634
86.94    705
86.96    757
86.98    716
87.0     652
87.02    630
87.04    531
87.06    495
87.08    420
87.1     372
87.12    360
87.14    370
87.16    382
87.18    375
87.2     341
87.22    360
87.24    332
87.26    354
87.28    363
87.3     392
87.32    429
87.34    422
87.36    478
87.38    490
87.4     514
87.42    511
87.44    475
87.46    538
87.48    560
87.5     560
87.52    562
87.54    530
87.56    529
87.58    501
87.6     507
87.62    461
87.64    420
87.66    440
87.68    436
87.7     407
87.72    421
87.74    413
87.76    413
87.78    456
87.8     518
87.82    570
87.84    597
87.86    565
87.88    567
87.9     508
87.92    516
87.94    506
87.96    575
87.98    637
88.0     652
88.02    650
88.04    611
88.06    539
88.08    511
88.1     532
88.12    585
88.14    592
88.16    655
88.18    602
88.2     525
88.22    425
88.24    352
88.26    297
88.28    246
88.3     276
88.32    278
88.34    291
88.36    370
88.38    358
88.4     375
88.42    398
88.44    467
88.46    516
88.48    546
88.5     536
88.52    513
88.54    486
88.56    534
88.58    529
88.6     544
88.62    519
88.64    527
88.66    550
88.68    526
88.7     475
88.72    384
88.74    258
88.76    209
88.78    207
88.8     227
88.82    283
88.84    353
88.86    430
88.88    507
88.9     558
88.92    530
88.94    448
88.96    406
88.98    407
89.0     438
89.02    554
89.04    584
89.06    574
89.08    651
89.1     680
89.12    684
89.14    633
89.16    584
89.18    516
89.2     533
89.22    596
89.24    572
89.26    512
89.28    522
89.3     516
89.32    522
89.34    442
89.36    386
89.38    307
89.4     310
89.42    344
89.44    327
89.46    363
89.48    368
89.5     375
89.52    408
89.54    449
89.56    493
89.58    445
89.6     466
89.62    490
89.64    501
89.66    576
89.68    567
89.7     524
89.72    528
89.74    554
89.76    519
89.78    496
89.8     570
89.82    585
89.84    610
89.86    612
89.88    580
89.9     586
89.92    577
89.94    586
89.96    639
89.98    656
90.0     660
