?
5.0      311
5.02     311
5.04     402
5.06     379
5.08     395
5.1      402
5.12     415
5.14     415
5.16     399
5.18     396
5.2      409
5.22     386
5.24     389
5.26     395
5.28     379
5.3      404
5.32     408
5.34     397
5.36     432
5.38     423
5.4      458
5.42     442
5.44     442
5.46     407
5.48     386
5.5      374
5.52     382
5.54     386
5.56     413
5.58     394
5.6      415
5.62     412
5.64     432
5.66     376
5.68     378
5.7      396
5.72     442
5.74     445
5.76     448
5.78     420
5.8      412
5.82     422
5.84     426
5.86     397
5.88     392
5.9      397
5.92     395
5.94     420
5.96     421
5.98     418
6.0      429
6.02     415
6.04     416
6.06     423
6.08     409
6.1      398
6.12     405
6.14     424
6.16     431
6.18     431
6.2      441
6.22     438
6.24     458
6.26     454
6.28     469
6.3      461
6.32     452
6.34     445
6.36     436
6.38     417
6.4      422
6.42     434
6.44     410
6.46     391
6.48     400
6.5      392
6.52     400
6.54     411
6.56     421
6.58     414
6.6      438
6.62     432
6.64     430
6.66     426
6.68     430
6.7      400
6.72     410
6.74     409
6.76     419
6.78     406
6.8      437
6.82     427
6.84     442
6.86     430
6.88     423
6.9      395
6.92     413
6.94     400
6.96     395
6.98     409
7.0      431
7.02     432
7.04     420
7.06     426
7.08     422
7.1      459
7.12     443
7.14     426
7.16     439
7.18     466
7.2      457
7.22     472
7.24     449
7.26     454
7.28     426
7.3      433
7.32     382
7.34     363
7.36     366
7.38     364
7.4      381
7.42     425
7.44     436
7.46     445
7.48     440
7.5      451
7.52     432
7.54     447
7.56     449
7.58     438
7.6      449
7.62     469
7.64     446
7.66     448
7.68     469
7.7      476
7.72     499
7.74     480
7.76     477
7.78     477
7.8      477
7.82     485
7.84     447
7.86     463
7.88     467
7.9      442
7.92     470
7.94     410
7.96     455
7.98     455
8.0      444
8.02     443
8.04     400
8.06     396
8.08     409
8.1      371
8.12     422
8.14     448
8.16     484
8.18     496
8.2      503
8.22     503
8.24     450
8.26     446
8.28     456
8.3      466
8.32     482
8.34     498
8.36     501
8.38     498
8.4      495
8.42     491
8.44     437
8.46     409
8.48     415
8.5      444
8.52     400
8.54     395
8.56     437
8.58     440
8.6      468
8.62     495
8.64     441
8.66     437
8.68     429
8.7      442
8.72     414
8.74     426
8.76     445
8.78     440
8.8      470
8.82     472
8.84     449
8.86     465
8.88     456
8.9      470
8.92     473
8.94     499
8.96     457
8.98     473
9.0      490
9.02     479
9.04     442
9.06     418
9.08     395
9.1      399
9.12     418
9.14     417
9.16     420
9.18     446
9.2      471
9.22     478
9.24     438
9.26     421
9.28     404
9.3      396
9.32     401
9.34     377
9.36     409
9.38     396
9.4      413
9.42     428
9.44     378
9.46     378
9.48     389
9.5      370
9.52     384
9.54     356
9.56     404
9.58     400
9.6      411
9.62     427
9.64     386
9.66     380
9.68     405
9.7      392
9.72     378
9.74     400
9.76     439
9.78     447
9.8      456
9.82     468
9.84     445
9.86     396
9.88     386
9.9      372
9.92     349
9.94     377
9.96     346
9.98     356
10.0     374
10.02    410
10.04    422
10.06    411
10.08    419
10.1     427
10.12    414
10.14    381
10.16    336
10.18    327
10.2     330
10.22    360
10.24    385
10.26    416
10.28    450
10.3     443
10.32    408
10.34    369
10.36    358
10.38    349
10.4     350
10.42    375
10.44    382
10.46    408
10.48    390
10.5     396
10.52    358
10.54    380
10.56    394
10.58    405
10.6     383
10.62    399
10.64    373
10.66    364
10.68    348
10.7     354
10.72    362
10.74    378
10.76    388
10.78    406
10.8     392
10.82    395
10.84    353
10.86    359
10.88    378
10.9     392
10.92    402
10.94    400
10.96    405
10.98    454
11.0     423
11.02    412
11.04    410
11.06    424
11.08    422
11.1     413
11.12    376
11.14    376
11.16    355
11.18    369
11.2     374
11.22    426
11.24    462
11.26    471
11.28    475
11.3     478
11.32    473
11.34    451
11.36    407
11.38    388
11.4     388
11.42    390
11.44    357
11.46    352
11.48    378
11.5     401
11.52    416
11.54    436
11.56    448
11.58    486
11.6     470
11.62    478
11.64    423
11.66    429
11.68    430
11.7     433
11.72    430
11.74    437
11.76    427
11.78    433
11.8     419
11.82    426
11.84    388
11.86    386
11.88    440
11.9     467
11.92    457
11.94    465
11.96    445
11.98    465
12.0     476
12.02    449
12.04    398
12.06    393
12.08    400
12.1     402
12.12    394
12.14    397
12.16    409
12.18    445
12.2     463
12.22    459
12.24    465
12.26    498
12.28    455
12.3     474
12.32    467
12.34    436
12.36    417
12.38    411
12.4     415
12.42    425
12.44    445
12.46    478
12.48    459
12.5     484
12.52    472
12.54    462
12.56    459
12.58    482
12.6     462
12.62    445
12.64    479
12.66    508
12.68    502
12.7     504
12.72    496
12.74    510
12.76    545
12.78    556
12.8     477
12.82    494
12.84    550
12.86    547
12.88    534
12.9     565
12.92    521
12.94    506
12.96    557
12.98    528
13.0     475
13.02    537
13.04    512
13.06    487
13.08    501
13.1     495
13.12    424
13.14    418
13.16    447
13.18    413
13.2     436
13.22    473
13.24    465
13.26    464
13.28    504
13.3     499
13.32    515
13.34    526
13.36    534
13.38    530
13.4     528
13.42    527
13.44    532
13.46    534
13.48    550
13.5     544
13.52    551
13.54    558
13.56    563
13.58    518
13.6     498
13.62    485
13.64    487
13.66    477
13.68    469
13.7     508
13.72    544
13.74    550
13.76    545
13.78    548
13.8     574
13.82    555
13.84    537
13.86    514
13.88    485
13.9     532
13.92    536
13.94    498
13.96    498
13.98    539
14.0     541
14.02    549
14.04    564
14.06    566
14.08    566
14.1     620
14.12    609
14.14    538
14.16    548
14.18    555
14.2     484
14.22    464
14.24    486
14.26    497
14.28    541
14.3     583
14.32    588
14.34    577
14.36    615
14.38    610
14.4     588
14.42    607
14.44    622
14.46    568
14.48    536
14.5     553
14.52    528
14.54    527
14.56    539
14.58    579
14.6     637
14.62    665
14.64    688
14.66    677
14.68    646
14.7     661
14.72    609
14.74    581
14.76    556
14.78    559
14.8     581
14.82    596
14.84    639
14.86    638
14.88    648
14.9     676
14.92    665
14.94    646
14.96    612
14.98    630
15.0     652
15.02    653
15.04    669
15.06    641
15.08    648
15.1     641
15.12    654
15.14    632
15.16    604
15.18    624
15.2     624
15.22    634
15.24    615
15.26    589
15.28    568
15.3     600
15.32    628
15.34    620
15.36    616
15.38    648
15.4     706
15.42    711
15.44    671
15.46    684
15.48    681
15.5     683
15.52    685
15.54    633
15.56    638
15.58    703
15.6     745
15.62    693
15.64    695
15.66    732
15.68    715
15.7     673
15.72    696
15.74    650
15.76    666
15.78    703
15.8     744
15.82    731
15.84    716
15.86    720
15.88    740
15.9     753
15.92    760
15.94    759
15.96    792
15.98    877
16.0     938
16.02    928
16.04    932
16.06    998
16.08    1068
16.1     1081
16.12    1089
16.14    1162
16.16    1266
16.18    1366
16.2     1456
16.22    1610
16.24    1799
16.26    2008
16.28    2273
16.3     2575
16.32    2893
16.34    3314
16.36    3881
16.38    4587
16.4     5379
16.42    6424
16.44    7772
16.46    9434
16.48    11558
16.5     14161
16.52    17140
16.54    20365
16.56    23209
16.58    24999
16.6     25284
16.62    23918
16.64    21039
16.66    17191
16.68    13011
16.7     9185
16.72    6199
16.74    4203
16.76    2989
16.78    2348
16.8     2079
16.82    1852
16.84    1624
16.86    1531
16.88    1399
16.9     1322
16.92    1233
16.94    1108
16.96    990
16.98    949
17.0     978
17.02    962
17.04    914
17.06    932
17.08    894
17.1     856
17.12    815
17.14    835
17.16    798
17.18    756
17.2     753
17.22    720
17.24    668
17.26    669
17.28    629
17.3     628
17.32    666
17.34    711
17.36    688
17.38    679
17.4     654
17.42    613
17.44    592
17.46    595
17.48    586
17.5     575
17.52    577
17.54    577
17.56    565
17.58    595
17.6     560
17.62    532
17.64    550
17.66    589
17.68    573
17.7     505
17.72    513
17.74    518
17.76    521
17.78    531
17.8     485
17.82    466
17.84    501
17.86    543
17.88    523
17.9     510
17.92    564
17.94    557
17.96    575
17.98    556
18.0     503
18.02    475
18.04    482
18.06    459
18.08    445
18.1     481
18.12    478
18.14    468
18.16    484
18.18    480
18.2     476
18.22    447
18.24    424
18.26    421
18.28    421
18.3     452
18.32    383
18.34    374
18.36    369
18.38    372
18.4     426
18.42    409
18.44    393
18.46    381
18.48    363
18.5     385
18.52    346
18.54    370
18.56    380
18.58    424
18.6     470
18.62    443
18.64    405
18.66    374
18.68    369
18.7     348
18.72    319
18.74    348
18.76    357
18.78    424
18.8     403
18.82    349
18.84    315
18.86    358
18.88    357
18.9     301
18.92    296
18.94    365
18.96    399
18.98    451
19.0     422
19.02    396
19.04    420
19.06    429
19.08    374
19.1     325
19.12    301
19.14    351
19.16    355
19.18    357
19.2     359
19.22    389
19.24    390
19.26    361
19.28    354
19.3     327
19.32    262
19.34    273
19.36    304
19.38    311
19.4     322
19.42    308
19.44    309
19.46    328
19.48    325
19.5     301
19.52    262
19.54    316
19.56    358
19.58    350
19.6     338
19.62    312
19.64    330
19.66    373
19.68    357
19.7     360
19.72    307
19.74    327
19.76    286
19.78    256
19.8     250
19.82    254
19.84    287
19.86    346
19.88    352
19.9     319
19.92    265
19.94    254
19.96    258
19.98    259
20.0     250
20.02    302
20.04    313
20.06    340
20.08    335
20.1     295
20.12    263
20.14    225
20.16    235
20.18    240
20.2     224
20.22    284
20.24    284
20.26    350
20.28    333
20.3     349
20.32    320
20.34    286
20.36    274
20.38    289
20.4     293
20.42    272
20.44    259
20.46    266
20.48    286
20.5     303
20.52    319
20.54    331
20.56    347
20.58    350
20.6     350
20.62    281
20.64    266
20.66    219
20.68    229
20.7     198
20.72    222
20.74    255
20.76    263
20.78    297
20.8     332
20.82    331
20.84    335
20.86    320
20.88    262
20.9     229
20.92    236
20.94    267
20.96    261
20.98    305
21.0     333
21.02    330
21.04    310
21.06    284
21.08    220
21.1     225
21.12    264
21.14    298
21.16    280
21.18    307
21.2     308
21.22    330
21.24    339
21.26    318
21.28    302
21.3     309
21.32    325
21.34    306
21.36    255
21.38    211
21.4     198
21.42    207
21.44    201
21.46    156
21.48    142
21.5     149
21.52    155
21.54    141
21.56    182
21.58    214
21.6     251
21.62    233
21.64    241
21.66    254
21.68    289
21.7     272
21.72    209
21.74    190
21.76    219
21.78    242
21.8     242
21.82    252
21.84    259
21.86    271
21.88    302
21.9     280
21.92    240
21.94    264
21.96    250
21.98    261
22.0     235
22.02    189
22.04    164
22.06    133
22.08    158
22.1     133
22.12    113
22.14    133
22.16    162
22.18    206
22.2     229
22.22    245
22.24    277
22.26    258
22.28    262
22.3     212
22.32    190
22.34    216
22.36    228
22.38    222
22.4     212
22.42    213
22.44    212
22.46    186
22.48    206
22.5     208
22.52    234
22.54    252
22.56    214
22.58    200
22.6     194
22.62    220
22.64    216
22.66    168
22.68    181
22.7     172
22.72    180
22.74    192
22.76    186
22.78    182
22.8     193
22.82    225
22.84    259
22.86    225
22.88    225
22.9     219
22.92    231
22.94    240
22.96    220
22.98    197
23.0     178
23.02    225
23.04    263
23.06    265
23.08    286
23.1     280
23.12    259
23.14    248
23.16    225
23.18    218
23.2     199
23.22    224
23.24    239
23.26    274
23.28    290
23.3     259
23.32    221
23.34    212
23.36    225
23.38    213
23.4     172
23.42    137
23.44    119
23.46    135
23.48    147
23.5     171
23.52    159
23.54    194
23.56    204
23.58    186
23.6     169
23.62    162
23.64    132
23.66    116
23.68    118
23.7     139
23.72    97
23.74    121
23.76    125
23.78    202
23.8     251
23.82    265
23.84    210
23.86    192
23.88    186
23.9     164
23.92    164
23.94    188
23.96    210
23.98    216
24.0     209
24.02    198
24.04    157
24.06    179
24.08    156
24.1     134
24.12    101
24.14    85
24.16    91
24.18    98
24.2     129
24.22    126
24.24    114
24.26    156
24.28    153
24.3     119
24.32    97
24.34    119
24.36    180
24.38    196
24.4     184
24.42    160
24.44    156
24.46    173
24.48    151
24.5     131
24.52    172
24.54    176
24.56    229
24.58    233
24.6     271
24.62    300
24.64    291
24.66    237
24.68    160
24.7     130
24.72    130
24.74    109
24.76    132
24.78    109
24.8     112
24.82    124
24.84    161
24.86    183
24.88    147
24.9     154
24.92    137
24.94    174
24.96    205
24.98    180
25.0     170
25.02    189
25.04    201
25.06    189
25.08    126
25.1     119
25.12    89
25.14    102
25.16    113
25.18    103
25.2     111
25.22    111
25.24    131
25.26    129
25.28    171
25.3     193
25.32    166
25.34    138
25.36    117
25.38    127
25.4     137
25.42    172
25.44    181
25.46    146
25.48    145
25.5     70
25.52    52
25.54    52
25.56    74
25.58    133
25.6     134
25.62    131
25.64    86
25.66    99
25.68    117
25.7     115
25.72    129
25.74    128
25.76    136
25.78    171
25.8     170
25.82    154
25.84    164
25.86    230
25.88    243
25.9     203
25.92    137
25.94    80
25.96    25
25.98    75
26.0     110
26.02    146
26.04    218
26.06    268
26.08    257
26.1     228
26.12    219
26.14    189
26.16    162
26.18    150
26.2     174
26.22    168
26.24    184
26.26    157
26.28    135
26.3     114
26.32    118
26.34    151
26.36    104
26.38    82
26.4     105
26.42    104
26.44    123
26.46    106
26.48    121
26.5     148
26.52    165
26.54    201
26.56    154
26.58    148
26.6     122
26.62    120
26.64    144
26.66    121
26.68    150
26.7     153
26.72    102
26.74    73
26.76    98
26.78    99
26.8     102
26.82    126
26.84    166
26.86    167
26.88    135
26.9     67
26.92    17
26.94    23
26.96    68
26.98    70
27.0     80
27.02    121
27.04    151
27.06    154
27.08    108
27.1     105
27.12    140
27.14    169
27.16    135
27.18    111
27.2     80
27.22    94
27.24    116
27.26    146
27.28    173
27.3     205
27.32    208
27.34    141
27.36    103
27.38    78
27.4     77
27.42    103
27.44    133
27.46    168
27.48    151
27.5     137
27.52    90
27.54    58
27.56    102
27.58    130
27.6     177
27.62    169
27.64    137
27.66    126
27.68    103
27.7     108
27.72    120
27.74    153
27.76    169
27.78    214
27.8     217
27.82    170
27.84    108
27.86    155
27.88    157
27.9     165
27.92    169
27.94    139
27.96    169
27.98    196
28.0     188
28.02    167
28.04    126
28.06    163
28.08    139
28.1     169
28.12    192
28.14    208
28.16    227
28.18    191
28.2     160
28.22    148
28.24    106
28.26    130
28.28    145
28.3     168
28.32    208
28.34    231
28.36    163
28.38    140
28.4     99
28.42    122
28.44    98
28.46    117
28.48    157
28.5     175
28.52    230
28.54    235
28.56    183
28.58    172
28.6     166
28.62    175
28.64    141
28.66    112
28.68    100
28.7     78
28.72    69
28.74    76
28.76    80
28.78    141
28.8     216
28.82    279
28.84    267
28.86    201
28.88    143
28.9     98
28.92    82
28.94    75
28.96    100
28.98    162
29.0     162
29.02    136
29.04    83
29.06    46
29.08    17
29.1     4
29.12    40
29.14    72
29.16    163
29.18    175
29.2     121
29.22    76
29.24    75
29.26    75
29.28    126
29.3     149
29.32    188
29.34    229
29.36    256
29.38    196
29.4     131
29.42    103
29.44    110
29.46    173
29.48    224
29.5     195
29.52    159
29.54    88
29.56    88
29.58    61
29.6     24
29.62    75
29.64    100
29.66    147
29.68    137
29.7     152
29.72    154
29.74    147
29.76    250
29.78    214
29.8     160
29.82    182
29.84    77
29.86    38
29.88    42
29.9     53
29.92    98
29.94    119
29.96    158
29.98    112
30.0     153
30.02    211
30.04    188
30.06    186
30.08    179
30.1     155
30.12    160
30.14    148
30.16    152
30.18    151
30.2     208
30.22    202
30.24    155
30.26    113
30.28    99
30.3     99
30.32    128
30.34    138
30.36    125
30.38    151
30.4     171
30.42    149
30.44    118
30.46    111
30.48    123
30.5     118
30.52    146
30.54    124
30.56    109
30.58    140
30.6     130
30.62    123
30.64    83
30.66    98
30.68    158
30.7     174
30.72    202
30.74    208
30.76    177
30.78    151
30.8     108
30.82    80
30.84    55
30.86    88
30.88    118
30.9     136
30.92    127
30.94    156
30.96    137
30.98    116
31.0     129
31.02    150
31.04    167
31.06    222
31.08    215
31.1     230
31.12    180
31.14    128
31.16    68
31.18    2
31.2     48
31.22    91
31.24    129
31.26    164
31.28    135
31.3     107
31.32    75
31.34    16
31.36    1
31.38    21
31.4     99
31.42    168
31.44    203
31.46    216
31.48    227
31.5     220
31.52    207
31.54    159
31.56    144
31.58    145
31.6     151
31.62    165
31.64    164
31.66    196
31.68    202
31.7     195
31.72    166
31.74    145
31.76    159
31.78    112
31.8     91
31.82    72
31.84    71
31.86    103
31.88    110
31.9     140
31.92    202
31.94    190
31.96    235
31.98    212
32.0     142
32.02    101
32.04    41
32.06    28
32.08    83
32.1     106
32.12    163
32.14    130
32.16    173
32.18    191
32.2     175
32.22    192
32.24    195
32.26    240
32.28    313
32.3     334
32.32    328
32.34    282
32.36    243
32.38    195
32.4     142
32.42    145
32.44    133
32.46    175
32.48    238
32.5     299
32.52    336
32.54    324
32.56    284
32.58    201
32.6     145
32.62    112
32.64    99
32.66    119
32.68    125
32.7     164
32.72    197
32.74    212
32.76    229
32.78    239
32.8     265
32.82    250
32.84    264
32.86    289
32.88    309
32.9     321
32.92    332
32.94    329
32.96    289
32.98    282
33.0     229
33.02    151
33.04    143
33.06    186
33.08    204
33.1     256
33.12    296
33.14    259
33.16    254
33.18    234
33.2     208
33.22    234
33.24    294
33.26    386
33.28    443
33.3     527
33.32    577
33.34    607
33.36    720
33.38    804
33.4     976
33.42    1227
33.44    1512
33.46    1936
33.48    2461
33.5     3077
33.52    3826
33.54    4563
33.56    5152
33.58    5498
33.6     5530
33.62    5234
33.64    4665
33.66    3927
33.68    3097
33.7     2322
33.72    1730
33.74    1288
33.76    965
33.78    798
33.8     667
33.82    589
33.84    555
33.86    440
33.88    371
33.9     347
33.92    318
33.94    297
33.96    313
33.98    305
34.0     277
34.02    252
34.04    252
34.06    226
34.08    242
34.1     319
34.12    335
34.14    320
34.16    328
34.18    255
34.2     230
34.22    260
34.24    270
34.26    285
34.28    279
34.3     317
34.32    258
34.34    200
34.36    185
34.38    189
34.4     235
34.42    325
34.44    347
34.46    358
34.48    338
34.5     257
34.52    186
34.54    113
34.56    151
34.58    218
34.6     272
34.62    332
34.64    408
34.66    420
34.68    405
34.7     358
34.72    349
34.74    272
34.76    308
34.78    295
34.8     287
34.82    315
34.84    379
34.86    372
34.88    394
34.9     407
34.92    441
34.94    484
34.96    590
34.98    700
35.0     843
35.02    1092
35.04    1416
35.06    1887
35.08    2555
35.1     3331
35.12    4200
35.14    4966
35.16    5432
35.18    5567
35.2     5306
35.22    4704
35.24    3870
35.26    2986
35.28    2143
35.3     1493
35.32    1073
35.34    819
35.36    660
35.38    622
35.4     619
35.42    633
35.44    639
35.46    610
35.48    510
35.5     453
35.52    390
35.54    333
35.56    234
35.58    169
35.6     150
35.62    172
35.64    196
35.66    276
35.68    264
35.7     252
35.72    243
35.74    217
35.76    161
35.78    189
35.8     218
35.82    251
35.84    297
35.86    398
35.88    363
35.9     351
35.92    356
35.94    296
35.96    271
35.98    283
36.0     258
36.02    260
36.04    295
36.06    348
36.08    377
36.1     430
36.12    447
36.14    450
36.16    487
36.18    497
36.2     488
36.22    562
36.24    662
36.26    752
36.28    892
36.3     1019
36.32    1183
36.34    1416
36.36    1743
36.38    2178
36.4     2894
36.42    3967
36.44    5391
36.46    7070
36.48    8817
36.5     10287
36.52    11147
36.54    11272
36.56    10619
36.58    9329
36.6     7731
36.62    5993
36.64    4505
36.66    3325
36.68    2546
36.7     1930
36.72    1481
36.74    1161
36.76    920
36.78    785
36.8     718
36.82    618
36.84    609
36.86    583
36.88    549
36.9     444
36.92    400
36.94    316
36.96    290
36.98    301
37.0     321
37.02    344
37.04    383
37.06    389
37.08    345
37.1     303
37.12    266
37.14    245
37.16    239
37.18    273
37.2     334
37.22    386
37.24    383
37.26    403
37.28    353
37.3     336
37.32    324
37.34    371
37.36    350
37.38    444
37.4     508
37.42    538
37.44    506
37.46    520
37.48    428
37.5     384
37.52    316
37.54    283
37.56    241
37.58    294
37.6     304
37.62    290
37.64    305
37.66    325
37.68    322
37.7     336
37.72    301
37.74    253
37.76    234
37.78    237
37.8     238
37.82    247
37.84    300
37.86    339
37.88    402
37.9     444
37.92    418
37.94    370
37.96    343
37.98    310
38.0     303
38.02    296
38.04    232
38.06    248
38.08    238
38.1     256
38.12    257
38.14    286
38.16    271
38.18    275
38.2     268
38.22    200
38.24    139
38.26    156
38.28    123
38.3     154
38.32    214
38.34    283
38.36    301
38.38    340
38.4     303
38.42    241
38.44    212
38.46    185
38.48    144
38.5     126
38.52    164
38.54    241
38.56    280
38.58    303
38.6     320
38.62    293
38.64    264
38.66    224
38.68    181
38.7     103
38.72    117
38.74    155
38.76    141
38.78    145
38.8     194
38.82    197
38.84    201
38.86    237
38.88    241
38.9     243
38.92    260
38.94    262
38.96    239
38.98    262
39.0     288
39.02    296
39.04    267
39.06    279
39.08    275
39.1     225
39.12    165
39.14    131
39.16    129
39.18    163
39.2     240
39.22    275
39.24    274
39.26    312
39.28    350
39.3     309
39.32    315
39.34    316
39.36    273
39.38    253
39.4     251
39.42    210
39.44    184
39.46    205
39.48    239
39.5     256
39.52    228
39.54    234
39.56    171
39.58    167
39.6     120
39.62    140
39.64    173
39.66    254
39.68    274
39.7     277
39.72    251
39.74    271
39.76    235
39.78    261
39.8     225
39.82    259
39.84    286
39.86    304
39.88    271
39.9     254
39.92    252
39.94    232
39.96    205
39.98    213
40.0     141
40.02    190
40.04    247
40.06    319
40.08    394
40.1     474
40.12    525
40.14    519
40.16    479
40.18    374
40.2     263
40.22    245
40.24    266
40.26    332
40.28    410
40.3     463
40.32    482
40.34    454
40.36    391
40.38    282
40.4     215
40.42    195
40.44    193
40.46    218
40.48    266
40.5     316
40.52    366
40.54    405
40.56    451
40.58    459
40.6     492
40.62    514
40.64    464
40.66    435
40.68    417
40.7     383
40.72    377
40.74    406
40.76    426
40.78    445
40.8     509
40.82    550
40.84    538
40.86    532
40.88    506
40.9     464
40.92    486
40.94    478
40.96    461
40.98    480
41.0     541
41.02    603
41.04    637
41.06    684
41.08    750
41.1     825
41.12    902
41.14    1002
41.16    1071
41.18    1172
41.2     1261
41.22    1389
41.24    1489
41.26    1612
41.28    1809
41.3     2073
41.32    2444
41.34    2989
41.36    3616
41.38    4459
41.4     5541
41.42    6950
41.44    8803
41.46    11345
41.48    14792
41.5     19161
41.52    24368
41.54    29810
41.56    34571
41.58    37756
41.6     38804
41.62    37400
41.64    33878
41.66    28855
41.68    23258
41.7     17935
41.72    13505
41.74    10106
41.76    7623
41.78    5857
41.8     4591
41.82    3649
41.84    2989
41.86    2532
41.88    2187
41.9     1965
41.92    1740
41.94    1533
41.96    1386
41.98    1290
42.0     1162
42.02    1056
42.04    1018
42.06    940
42.08    831
42.1     780
42.12    692
42.14    630
42.16    626
42.18    682
42.2     693
42.22    693
42.24    725
42.26    728
42.28    690
42.3     627
42.32    567
42.34    532
42.36    483
42.38    458
42.4     428
42.42    461
42.44    507
42.46    540
42.48    537
42.5     545
42.52    532
42.54    527
42.56    474
42.58    411
42.6     399
42.62    385
42.64    367
42.66    324
42.68    332
42.7     335
42.72    290
42.74    324
42.76    330
42.78    336
42.8     344
42.82    360
42.84    419
42.86    410
42.88    413
42.9     377
42.92    335
42.94    289
42.96    269
42.98    258
43.0     244
43.02    285
43.04    322
43.06    356
43.08    396
43.1     375
43.12    376
43.14    352
43.16    355
43.18    323
43.2     305
43.22    303
43.24    296
43.26    325
43.28    325
43.3     331
43.32    358
43.34    373
43.36    361
43.38    332
43.4     337
43.42    314
43.44    286
43.46    251
43.48    239
43.5     260
43.52    276
43.54    299
43.56    289
43.58    294
43.6     340
43.62    349
43.64    363
43.66    382
43.68    430
43.7     434
43.72    439
43.74    416
43.76    358
43.78    316
43.8     295
43.82    265
43.84    279
43.86    266
43.88    323
43.9     327
43.92    338
43.94    363
43.96    339
43.98    327
44.0     259
44.02    225
44.04    249
44.06    200
44.08    275
44.1     317
44.12    390
44.14    380
44.16    334
44.18    345
44.2     280
44.22    265
44.24    294
44.26    276
44.28    304
44.3     304
44.32    298
44.34    226
44.36    196
44.38    212
44.4     193
44.42    211
44.44    273
44.46    309
44.48    369
44.5     394
44.52    419
44.54    434
44.56    372
44.58    387
44.6     302
44.62    278
44.64    237
44.66    224
44.68    253
44.7     193
44.72    178
44.74    143
44.76    99
44.78    158
44.8     170
44.82    272
44.84    323
44.86    409
44.88    482
44.9     535
44.92    567
44.94    574
44.96    598
44.98    626
45.0     664
45.02    680
45.04    743
45.06    852
45.08    923
45.1     989
45.12    979
45.14    951
45.16    854
45.18    720
45.2     572
45.22    442
45.24    430
45.26    412
45.28    390
45.3     403
45.32    420
45.34    415
45.36    368
45.38    341
45.4     328
45.42    294
45.44    259
45.46    226
45.48    235
45.5     281
45.52    292
45.54    319
45.56    319
45.58    350
45.6     322
45.62    276
45.64    271
45.66    245
45.68    247
45.7     268
45.72    254
45.74    265
45.76    262
45.78    291
45.8     235
45.82    254
45.84    306
45.86    269
45.88    245
45.9     258
45.92    234
45.94    254
45.96    264
45.98    301
46.0     312
46.02    360
46.04    392
46.06    313
46.08    247
46.1     199
46.12    113
46.14    112
46.16    99
46.18    144
46.2     230
46.22    295
46.24    352
46.26    352
46.28    350
46.3     330
46.32    311
46.34    325
46.36    313
46.38    312
46.4     300
46.42    277
46.44    297
46.46    279
46.48    277
46.5     310
46.52    341
46.54    374
46.56    351
46.58    318
46.6     316
46.62    277
46.64    232
46.66    169
46.68    196
46.7     238
46.72    256
46.74    296
46.76    318
46.78    325
46.8     352
46.82    330
46.84    292
46.86    230
46.88    224
46.9     197
46.92    166
46.94    162
46.96    197
46.98    242
47.0     281
47.02    346
47.04    362
47.06    346
47.08    330
47.1     272
47.12    212
47.14    183
47.16    197
47.18    204
47.2     190
47.22    224
47.24    278
47.26    277
47.28    315
47.3     265
47.32    260
47.34    282
47.36    253
47.38    252
47.4     235
47.42    272
47.44    353
47.46    351
47.48    424
47.5     347
47.52    360
47.54    337
47.56    278
47.58    233
47.6     170
47.62    169
47.64    216
47.66    222
47.68    278
47.7     243
47.72    290
47.74    296
47.76    307
47.78    299
47.8     326
47.82    386
47.84    428
47.86    446
47.88    409
47.9     372
47.92    305
47.94    193
47.96    149
47.98    91
48.0     101
48.02    166
48.04    208
48.06    314
48.08    387
48.1     491
48.12    505
48.14    466
48.16    458
48.18    373
48.2     320
48.22    289
48.24    210
48.26    200
48.28    193
48.3     193
48.32    220
48.34    229
48.36    297
48.38    315
48.4     308
48.42    319
48.44    279
48.46    281
48.48    224
48.5     206
48.52    214
48.54    261
48.56    302
48.58    319
48.6     314
48.62    360
48.64    375
48.66    377
48.68    339
48.7     308
48.72    252
48.74    250
48.76    196
48.78    176
48.8     176
48.82    240
48.84    284
48.86    306
48.88    355
48.9     340
48.92    323
48.94    311
48.96    260
48.98    230
49.0     225
49.02    241
49.04    229
49.06    221
49.08    201
49.1     164
49.12    151
49.14    149
49.16    165
49.18    191
49.2     246
49.22    275
49.24    274
49.26    290
49.28    254
49.3     208
49.32    150
49.34    131
49.36    118
49.38    149
49.4     175
49.42    222
49.44    230
49.46    266
49.48    281
49.5     283
49.52    286
49.54    278
49.56    293
49.58    305
49.6     255
49.62    243
49.64    205
49.66    176
49.68    162
49.7     189
49.72    215
49.74    234
49.76    282
49.78    279
49.8     285
49.82    303
49.84    294
49.86    251
49.88    261
49.9     283
49.92    263
49.94    253
49.96    249
49.98    241
50.0     220
50.02    182
50.04    150
50.06    196
50.08    250
50.1     304
50.12    331
50.14    350
50.16    360
50.18    318
50.2     241
50.22    185
50.24    154
50.26    160
50.28    176
50.3     231
50.32    275
50.34    276
50.36    262
50.38    257
50.4     278
50.42    260
50.44    206
50.46    180
50.48    200
50.5     233
50.52    234
50.54    181
50.56    174
50.58    235
50.6     307
50.62    334
50.64    312
50.66    326
50.68    351
50.7     327
50.72    236
50.74    148
50.76    120
50.78    139
50.8     158
50.82    187
50.84    207
50.86    279
50.88    326
50.9     345
50.92    345
50.94    320
50.96    284
50.98    262
51.0     235
51.02    201
51.04    175
51.06    193
51.08    251
51.1     310
51.12    336
51.14    315
51.16    274
51.18    257
51.2     219
51.22    115
51.24    41
51.26    41
51.28    111
51.3     175
51.32    224
51.34    275
51.36    316
51.38    375
51.4     397
51.42    343
51.44    293
51.46    287
51.48    329
51.5     364
51.52    332
51.54    295
51.56    315
51.58    346
51.6     290
51.62    205
51.64    179
51.66    190
51.68    210
51.7     187
51.72    149
51.74    186
51.76    259
51.78    278
51.8     229
51.82    253
51.84    353
51.86    379
51.88    374
51.9     344
51.92    384
51.94    433
51.96    413
51.98    316
52.0     253
52.02    230
52.04    239
52.06    192
52.08    110
52.1     119
52.12    222
52.14    279
52.16    323
52.18    341
52.2     393
52.22    468
52.24    493
52.26    446
52.28    339
52.3     347
52.32    337
52.34    288
52.36    274
52.38    249
52.4     285
52.42    356
52.44    379
52.46    350
52.48    338
52.5     351
52.52    353
52.54    299
52.56    262
52.58    213
52.6     223
52.62    246
52.64    274
52.66    254
52.68    279
52.7     305
52.72    329
52.74    308
52.76    336
52.78    340
52.8     303
52.82    276
52.84    275
52.86    279
52.88    260
52.9     253
52.92    273
52.94    325
52.96    412
52.98    413
53.0     390
53.02    362
53.04    369
53.06    373
53.08    332
53.1     338
53.12    393
53.14    463
53.16    520
53.18    518
53.2     516
53.22    515
53.24    572
53.26    599
53.28    655
53.3     795
53.32    976
53.34    1175
53.36    1403
53.38    1647
53.4     1948
53.42    2341
53.44    2755
53.46    3042
53.48    3286
53.5     3442
53.52    3421
53.54    3234
53.56    2946
53.58    2568
53.6     2210
53.62    1903
53.64    1621
53.66    1330
53.68    1127
53.7     956
53.72    800
53.74    659
53.76    556
53.78    483
53.8     425
53.82    390
53.84    400
53.86    390
53.88    389
53.9     404
53.92    400
53.94    363
53.96    326
53.98    289
54.0     274
54.02    262
54.04    295
54.06    246
54.08    278
54.1     328
54.12    324
54.14    317
54.16    322
54.18    317
54.2     315
54.22    320
54.24    288
54.26    248
54.28    297
54.3     321
54.32    313
54.34    366
54.36    361
54.38    376
54.4     378
54.42    358
54.44    296
54.46    253
54.48    209
54.5     211
54.52    194
54.54    229
54.56    237
54.58    350
54.6     404
54.62    418
54.64    419
54.66    398
54.68    362
54.7     353
54.72    320
54.74    262
54.76    200
54.78    207
54.8     210
54.82    254
54.84    254
54.86    247
54.88    273
54.9     311
54.92    350
54.94    362
54.96    322
54.98    321
55.0     345
55.02    315
55.04    260
55.06    228
55.08    217
55.1     221
55.12    248
55.14    234
55.16    204
55.18    227
55.2     260
55.22    253
55.24    273
55.26    281
55.28    236
55.3     248
55.32    245
55.34    246
55.36    261
55.38    275
55.4     321
55.42    315
55.44    312
55.46    299
55.48    266
55.5     264
55.52    267
55.54    294
55.56    262
55.58    258
55.6     262
55.62    206
55.64    211
55.66    208
55.68    195
55.7     188
55.72    250
55.74    305
55.76    322
55.78    380
55.8     393
55.82    393
55.84    374
55.86    323
55.88    267
55.9     196
55.92    198
55.94    194
55.96    174
55.98    193
56.0     240
56.02    287
56.04    273
56.06    279
56.08    264
56.1     270
56.12    266
56.14    266
56.16    243
56.18    233
56.2     283
56.22    336
56.24    324
56.26    362
56.28    378
56.3     411
56.32    374
56.34    347
56.36    291
56.38    244
56.4     252
56.42    261
56.44    241
56.46    234
56.48    264
56.5     305
56.52    310
56.54    304
56.56    283
56.58    280
56.6     292
56.62    329
56.64    341
56.66    319
56.68    370
56.7     363
56.72    357
56.74    372
56.76    330
56.78    333
56.8     349
56.82    358
56.84    341
56.86    356
56.88    368
56.9     357
56.92    401
56.94    361
56.96    313
56.98    328
57.0     318
57.02    267
57.04    241
57.06    264
57.08    232
57.1     271
57.12    331
57.14    278
57.16    329
57.18    388
57.2     414
57.22    399
57.24    409
57.26    375
57.28    341
57.3     367
57.32    383
57.34    361
57.36    378
57.38    366
57.4     365
57.42    392
57.44    397
57.46    354
57.48    361
57.5     393
57.52    382
57.54    392
57.56    375
57.58    378
57.6     434
57.62    476
57.64    486
57.66    482
57.68    530
57.7     541
57.72    536
57.74    520
57.76    479
57.78    453
57.8     425
57.82    390
57.84    414
57.86    451
57.88    528
57.9     592
57.92    706
57.94    821
57.96    878
57.98    963
58.0     1043
58.02    1103
58.04    1199
58.06    1354
58.08    1469
58.1     1602
58.12    1871
58.14    2233
58.16    2642
58.18    3183
58.2     3817
58.22    4569
58.24    5403
58.26    6263
58.28    6943
58.3     7409
58.32    7675
58.34    7545
58.36    7128
58.38    6391
58.4     5534
58.42    4664
58.44    3829
58.46    3117
58.48    2517
58.5     2074
58.52    1763
58.54    1515
58.56    1368
58.58    1230
58.6     1151
58.62    1072
58.64    1013
58.66    914
58.68    806
58.7     747
58.72    681
58.74    639
58.76    614
58.78    587
58.8     519
58.82    476
58.84    487
58.86    481
58.88    481
58.9     468
58.92    473
58.94    489
58.96    500
58.98    488
59.0     438
59.02    389
59.04    366
59.06    344
59.08    287
59.1     223
59.12    247
59.14    281
59.16    328
59.18    392
59.2     464
59.22    473
59.24    484
59.26    479
59.28    419
59.3     383
59.32    327
59.34    258
59.36    240
59.38    193
59.4     189
59.42    185
59.44    236
59.46    256
59.48    285
59.5     349
59.52    341
59.54    354
59.56    388
59.58    358
59.6     366
59.62    371
59.64    367
59.66    319
59.68    320
59.7     321
59.72    287
59.74    254
59.76    239
59.78    231
59.8     242
59.82    284
59.84    314
59.86    319
59.88    377
59.9     434
59.92    473
59.94    470
59.96    444
59.98    360
60.0     350
60.02    344
60.04    319
60.06    241
60.08    230
60.1     217
60.12    258
60.14    235
60.16    231
60.18    235
60.2     296
60.22    336
60.24    359
60.26    324
60.28    291
60.3     310
60.32    329
60.34    284
60.36    278
60.38    293
60.4     276
60.42    292
60.44    289
60.46    304
60.48    320
60.5     406
60.52    398
60.54    378
60.56    360
60.58    353
60.6     308
60.62    277
60.64    254
60.66    223
60.68    227
60.7     287
60.72    293
60.74    332
60.76    347
60.78    393
60.8     408
60.82    433
60.84    418
60.86    365
60.88    357
60.9     326
60.92    289
60.94    188
60.96    151
60.98    170
61.0     200
61.02    258
61.04    309
61.06    329
61.08    323
61.1     359
61.12    368
61.14    293
61.16    306
61.18    309
61.2     307
61.22    297
61.24    324
61.26    284
61.28    242
61.3     284
61.32    348
61.34    363
61.36    400
61.38    414
61.4     416
61.42    414
61.44    441
61.46    416
61.48    351
61.5     349
61.52    371
61.54    354
61.56    374
61.58    337
61.6     340
61.62    344
61.64    336
61.66    371
61.68    374
61.7     408
61.72    421
61.74    455
61.76    519
61.78    493
61.8     480
61.82    510
61.84    519
61.86    577
61.88    630
61.9     711
61.92    788
61.94    908
61.96    1096
61.98    1246
62.0     1410
62.02    1674
62.04    2019
62.06    2530
62.08    3147
62.1     3922
62.12    4819
62.14    5833
62.16    6793
62.18    7606
62.2     8034
62.22    8132
62.24    7830
62.26    7253
62.28    6434
62.3     5544
62.32    4646
62.34    3827
62.36    3149
62.38    2628
62.4     2221
62.42    1904
62.44    1604
62.46    1411
62.48    1242
62.5     1102
62.52    969
62.54    848
62.56    765
62.58    710
62.6     703
62.62    653
62.64    618
62.66    593
62.68    560
62.7     535
62.72    534
62.74    504
62.76    464
62.78    455
62.8     404
62.82    378
62.84    392
62.86    431
62.88    473
62.9     499
62.92    528
62.94    525
62.96    494
62.98    455
63.0     399
63.02    363
63.04    303
63.06    271
63.08    247
63.1     209
63.12    201
63.14    223
63.16    233
63.18    264
63.2     301
63.22    354
63.24    359
63.26    359
63.28    356
63.3     309
63.32    292
63.34    277
63.36    254
63.38    284
63.4     303
63.42    299
63.44    288
63.46    294
63.48    300
63.5     293
63.52    267
63.54    242
63.56    223
63.58    257
63.6     289
63.62    286
63.64    315
63.66    359
63.68    351
63.7     371
63.72    334
63.74    303
63.76    310
63.78    343
63.8     376
63.82    373
63.84    403
63.86    436
63.88    429
63.9     444
63.92    423
63.94    366
63.96    348
63.98    327
64.0     292
64.02    271
64.04    258
64.06    300
64.08    279
64.1     299
64.12    316
64.14    301
64.16    311
64.18    323
64.2     312
64.22    306
64.24    297
64.26    321
64.28    280
64.3     296
64.32    299
64.34    312
64.36    291
64.38    295
64.4     293
64.42    295
64.44    290
64.46    307
64.48    306
64.5     297
64.52    298
64.54    371
64.56    410
64.58    482
64.6     561
64.62    624
64.64    668
64.66    717
64.68    806
64.7     892
64.72    1007
64.74    1157
64.76    1266
64.78    1370
64.8     1533
64.82    1732
64.84    1945
64.86    2105
64.88    2196
64.9     2225
64.92    2187
64.94    2025
64.96    1848
64.98    1559
65.0     1356
65.02    1178
65.04    1049
65.06    935
65.08    808
65.1     713
65.12    673
65.14    593
65.16    599
65.18    555
65.2     545
65.22    509
65.24    496
65.26    501
65.28    496
65.3     445
65.32    419
65.34    326
65.36    277
65.38    267
65.4     229
65.42    261
65.44    285
65.46    319
65.48    392
65.5     417
65.52    460
65.54    428
65.56    400
65.58    424
65.6     367
65.62    362
65.64    348
65.66    285
65.68    254
65.7     214
65.72    201
65.74    181
65.76    184
65.78    247
65.8     264
65.82    251
65.84    273
65.86    257
65.88    278
65.9     306
65.92    309
65.94    323
65.96    319
65.98    312
66.0     300
66.02    242
66.04    235
66.06    240
66.08    282
66.1     303
66.12    316
66.14    299
66.16    279
66.18    262
66.2     236
66.22    223
66.24    200
66.26    194
66.28    221
66.3     247
66.32    307
66.34    359
66.36    391
66.38    426
66.4     392
66.42    396
66.44    352
66.46    298
66.48    253
66.5     199
66.52    157
66.54    168
66.56    153
66.58    195
66.6     203
66.62    249
66.64    278
66.66    318
66.68    346
66.7     317
66.72    306
66.74    328
66.76    297
66.78    302
66.8     268
66.82    252
66.84    257
66.86    272
66.88    263
66.9     248
66.92    248
66.94    269
66.96    269
66.98    276
67.0     315
67.02    301
67.04    299
67.06    264
67.08    265
67.1     266
67.12    280
67.14    271
67.16    317
67.18    332
67.2     355
67.22    306
67.24    295
67.26    274
67.28    304
67.3     286
67.32    255
67.34    213
67.36    220
67.38    233
67.4     228
67.42    217
67.44    255
67.46    297
67.48    329
67.5     360
67.52    351
67.54    379
67.56    360
67.58    374
67.6     349
67.62    341
67.64    335
67.66    341
67.68    340
67.7     333
67.72    301
67.74    317
67.76    281
67.78    254
67.8     229
67.82    238
67.84    221
67.86    239
67.88    235
67.9     229
67.92    238
67.94    278
67.96    252
67.98    260
68.0     270
68.02    324
68.04    344
68.06    343
68.08    348
68.1     320
68.12    325
68.14    306
68.16    236
68.18    203
68.2     185
68.22    197
68.24    211
68.26    246
68.28    301
68.3     329
68.32    388
68.34    372
68.36    370
68.38    364
68.4     375
68.42    351
68.44    351
68.46    334
68.48    335
68.5     324
68.52    331
68.54    350
68.56    362
68.58    344
68.6     376
68.62    374
68.64    414
68.66    423
68.68    433
68.7     441
68.72    483
68.74    521
68.76    544
68.78    537
68.8     595
68.82    646
68.84    721
68.86    858
68.88    1000
68.9     1168
68.92    1351
68.94    1532
68.96    1725
68.98    1845
69.0     1907
69.02    1901
69.04    1863
69.06    1802
69.08    1658
69.1     1496
69.12    1338
69.14    1187
69.16    1062
69.18    961
69.2     865
69.22    807
69.24    737
69.26    689
69.28    651
69.3     607
69.32    540
69.34    479
69.36    373
69.38    311
69.4     266
69.42    244
69.44    240
69.46    256
69.48    298
69.5     305
69.52    332
69.54    356
69.56    359
69.58    413
69.6     430
69.62    432
69.64    438
69.66    408
69.68    394
69.7     385
69.72    355
69.74    302
69.76    294
69.78    328
69.8     310
69.82    250
69.84    260
69.86    270
69.88    291
69.9     304
69.92    264
69.94    266
69.96    279
69.98    336
70.0     326
70.02    340
70.04    371
70.06    388
70.08    425
70.1     435
70.12    454
70.14    452
70.16    426
70.18    413
70.2     368
70.22    331
70.24    296
70.26    247
70.28    214
70.3     170
70.32    172
70.34    193
70.36    288
70.38    344
70.4     440
70.42    555
70.44    666
70.46    693
70.48    782
70.5     855
70.52    901
70.54    956
70.56    1002
70.58    1032
70.6     1058
70.62    1055
70.64    984
70.66    914
70.68    873
70.7     777
70.72    693
70.74    665
70.76    611
70.78    572
70.8     534
70.82    490
70.84    442
70.86    442
70.88    420
70.9     401
70.92    427
70.94    424
70.96    417
70.98    434
71.0     396
71.02    374
71.04    358
71.06    344
71.08    341
71.1     325
71.12    299
71.14    301
71.16    273
71.18    265
71.2     233
71.22    251
71.24    248
71.26    276
71.28    294
71.3     321
71.32    344
71.34    357
71.36    313
71.38    299
71.4     317
71.42    316
71.44    323
71.46    268
71.48    218
71.5     189
71.52    159
71.54    163
71.56    182
71.58    214
71.6     272
71.62    314
71.64    316
71.66    284
71.68    305
71.7     312
71.72    317
71.74    321
71.76    311
71.78    339
71.8     304
71.82    294
71.84    298
71.86    309
71.88    335
71.9     343
71.92    338
71.94    372
71.96    387
71.98    399
72.0     341
72.02    358
72.04    318
72.06    293
72.08    321
72.1     320
72.12    376
72.14    429
72.16    462
72.18    464
72.2     433
72.22    439
72.24    442
72.26    480
72.28    531
72.3     546
72.32    601
72.34    621
72.36    677
72.38    760
72.4     852
72.42    999
72.44    1152
72.46    1308
72.48    1485
72.5     1707
72.52    1915
72.54    2092
72.56    2279
72.58    2418
72.6     2463
72.62    2369
72.64    2230
72.66    2098
72.68    1885
72.7     1736
72.72    1545
72.74    1367
72.76    1251
72.78    1114
72.8     962
72.82    810
72.84    744
72.86    699
72.88    623
72.9     599
72.92    558
72.94    527
72.96    534
72.98    491
73.0     499
73.02    509
73.04    513
73.06    478
73.08    454
73.1     411
73.12    357
73.14    304
73.16    253
73.18    195
73.2     207
73.22    220
73.24    232
73.26    254
73.28    330
73.3     390
73.32    403
73.34    433
73.36    435
73.38    433
73.4     444
73.42    487
73.44    528
73.46    571
73.48    598
73.5     599
73.52    568
73.54    568
73.56    548
73.58    541
73.6     560
73.62    562
73.64    535
73.66    462
73.68    434
73.7     415
73.72    371
73.74    373
73.76    331
73.78    343
73.8     347
73.82    370
73.84    348
73.86    339
73.88    414
73.9     444
73.92    414
73.94    420
73.96    368
73.98    370
74.0     361
74.02    412
74.04    399
74.06    434
74.08    463
74.1     436
74.12    445
74.14    458
74.16    462
74.18    495
74.2     569
74.22    650
74.24    704
74.26    810
74.28    872
74.3     986
74.32    1084
74.34    1106
74.36    1168
74.38    1246
74.4     1241
74.42    1206
74.44    1138
74.46    1047
74.48    903
74.5     845
74.52    732
74.54    659
74.56    692
74.58    722
74.6     644
74.62    672
74.64    673
74.66    649
74.68    653
74.7     717
74.72    727
74.74    776
74.76    852
74.78    859
74.8     858
74.82    957
74.84    1005
74.86    1058
74.88    1105
74.9     1113
74.92    1074
74.94    1074
74.96    1017
74.98    943
75.0     897
75.02    864
75.04    766
75.06    693
75.08    603
75.1     554
75.12    569
75.14    545
75.16    498
75.18    458
75.2     400
75.22    335
75.24    269
75.26    241
75.28    249
75.3     310
75.32    375
75.34    361
75.36    353
75.38    329
75.4     314
75.42    310
75.44    294
75.46    301
75.48    310
75.5     294
75.52    284
75.54    304
75.56    285
75.58    325
75.6     361
75.62    366
75.64    326
75.66    315
75.68    305
75.7     288
75.72    281
75.74    272
75.76    261
75.78    294
75.8     297
75.82    268
75.84    241
75.86    254
75.88    281
75.9     280
75.92    263
75.94    242
75.96    257
75.98    278
76.0     257
76.02    208
76.04    206
76.06    179
76.08    177
76.1     193
76.12    252
76.14    320
76.16    369
76.18    440
76.2     425
76.22    400
76.24    426
76.26    383
76.28    412
76.3     398
76.32    374
76.34    342
76.36    271
76.38    250
76.4     164
76.42    97
76.44    149
76.46    129
76.48    169
76.5     183
76.52    204
76.54    221
76.56    210
76.58    217
76.6     204
76.62    224
76.64    289
76.66    295
76.68    300
76.7     346
76.72    378
76.74    359
76.76    356
76.78    366
76.8     393
76.82    392
76.84    372
76.86    344
76.88    273
76.9     276
76.92    247
76.94    238
76.96    276
76.98    331
77.0     344
77.02    330
77.04    312
77.06    319
77.08    336
77.1     373
77.12    368
77.14    419
77.16    456
77.18    469
77.2     482
77.22    454
77.24    423
77.26    436
77.28    443
77.3     428
77.32    422
77.34    474
77.36    518
77.38    552
77.4     655
77.42    717
77.44    856
77.46    1025
77.48    1198
77.5     1373
77.52    1613
77.54    1885
77.56    2111
77.58    2270
77.6     2482
77.62    2591
77.64    2685
77.66    2686
77.68    2599
77.7     2433
77.72    2229
77.74    1988
77.76    1706
77.78    1476
77.8     1367
77.82    1203
77.84    1118
77.86    1028
77.88    930
77.9     845
77.92    727
77.94    677
77.96    652
77.98    651
78.0     633
78.02    581
78.04    525
78.06    472
78.08    392
78.1     341
78.12    305
78.14    345
78.16    337
78.18    378
78.2     327
78.22    313
78.24    269
78.26    244
78.28    208
78.3     223
78.32    271
78.34    314
78.36    321
78.38    364
78.4     298
78.42    279
78.44    264
78.46    262
78.48    254
78.5     283
78.52    313
78.54    333
78.56    280
78.58    276
78.6     248
78.62    263
78.64    282
78.66    283
78.68    278
78.7     296
78.72    291
78.74    292
78.76    273
78.78    316
78.8     303
78.82    349
78.84    332
78.86    346
78.88    340
78.9     326
78.92    295
78.94    300
78.96    307
78.98    304
79.0     278
79.02    278
79.04    285
79.06    302
79.08    277
79.1     265
79.12    267
79.14    286
79.16    280
79.18    243
79.2     204
79.22    174
79.24    183
79.26    178
79.28    183
79.3     200
79.32    225
79.34    210
79.36    203
79.38    188
79.4     220
79.42    247
79.44    295
79.46    318
79.48    328
79.5     328
79.52    302
79.54    282
79.56    283
79.58    305
79.6     329
79.62    342
79.64    349
79.66    278
79.68    197
79.7     126
79.72    102
79.74    138
79.76    167
79.78    198
79.8     237
79.82    268
79.84    278
79.86    269
79.88    275
79.9     318
79.92    373
79.94    408
79.96    397
79.98    360
80.0     337
80.02    298
80.04    258
80.06    248
80.08    272
80.1     305
80.12    307
80.14    257
80.16    267
80.18    301
80.2     330
80.22    340
80.24    354
80.26    325
80.28    335
80.3     330
80.32    284
80.34    222
80.36    268
80.38    341
80.4     355
80.42    299
80.44    272
80.46    236
80.48    251
80.5     262
80.52    221
80.54    183
80.56    239
80.58    241
80.6     226
80.62    177
80.64    208
80.66    263
80.68    330
80.7     360
80.72    318
80.74    294
80.76    289
80.78    239
80.8     213
80.82    189
80.84    208
80.86    218
80.88    237
80.9     260
80.92    254
80.94    261
80.96    266
80.98    293
81.0     285
81.02    272
81.04    271
81.06    284
81.08    261
81.1     270
81.12    196
81.14    140
81.16    120
81.18    130
81.2     144
81.22    155
81.24    214
81.26    301
81.28    316
81.3     301
81.32    249
81.34    234
81.36    258
81.38    278
81.4     292
81.42    275
81.44    291
81.46    330
81.48    315
81.5     265
81.52    249
81.54    240
81.56    266
81.58    237
81.6     194
81.62    161
81.64    178
81.66    222
81.68    237
81.7     225
81.72    234
81.74    238
81.76    251
81.78    247
81.8     220
81.82    235
81.84    275
81.86    297
81.88    279
81.9     266
81.92    243
81.94    204
81.96    218
81.98    258
82.0     262
82.02    299
82.04    327
82.06    328
82.08    297
82.1     285
82.12    217
82.14    171
82.16    199
82.18    259
82.2     237
82.22    233
82.24    253
82.26    285
82.28    292
82.3     299
82.32    280
82.34    262
82.36    284
82.38    308
82.4     260
82.42    222
82.44    273
82.46    285
82.48    280
82.5     253
82.52    222
82.54    204
82.56    209
82.58    213
82.6     229
82.62    251
82.64    269
82.66    275
82.68    276
82.7     248
82.72    267
82.74    258
82.76    258
82.78    265
82.8     307
82.82    319
82.84    280
82.86    275
82.88    271
82.9     272
82.92    266
82.94    231
82.96    215
82.98    215
83.0     262
83.02    312
83.04    263
83.06    236
83.08    215
83.1     218
83.12    208
83.14    181
83.16    147
83.18    157
83.2     224
83.22    232
83.24    179
83.26    148
83.28    118
83.3     168
83.32    220
83.34    258
83.36    271
83.38    276
83.4     278
83.42    266
83.44    273
83.46    209
83.48    176
83.5     234
83.52    283
83.54    335
83.56    308
83.58    265
83.6     230
83.62    220
83.64    216
83.66    211
83.68    217
83.7     242
83.72    279
83.74    286
83.76    265
83.78    214
83.8     166
83.82    139
83.84    149
83.86    203
83.88    199
83.9     181
83.92    209
83.94    201
83.96    174
83.98    156
84.0     157
84.02    166
84.04    215
84.06    276
84.08    326
84.1     330
84.12    317
84.14    287
84.16    264
84.18    224
84.2     227
84.22    230
84.24    268
84.26    271
84.28    315
84.3     301
84.32    264
84.34    237
84.36    266
84.38    257
84.4     260
84.42    226
84.44    198
84.46    168
84.48    151
84.5     147
84.52    193
84.54    217
84.56    293
84.58    348
84.6     354
84.62    345
84.64    340
84.66    348
84.68    346
84.7     376
84.72    394
84.74    340
84.76    309
84.78    314
84.8     303
84.82    295
84.84    309
84.86    302
84.88    316
84.9     336
84.92    310
84.94    249
84.96    220
84.98    232
85.0     246
85.02    282
85.04    285
85.06    258
85.08    254
85.1     256
85.12    274
85.14    243
85.16    246
85.18    243
85.2     283
85.22    284
85.24    265
85.26    236
85.28    218
85.3     209
85.32    228
85.34    232
85.36    237
85.38    196
85.4     213
85.42    219
85.44    217
85.46    200
85.48    241
85.5     256
85.52    300
85.54    271
85.56    270
85.58    245
85.6     257
85.62    276
85.64    287
85.66    281
85.68    295
85.7     306
85.72    324
85.74    307
85.76    331
85.78    343
85.8     359
85.82    370
85.84    353
85.86    315
85.88    282
85.9     299
85.92    309
85.94    320
85.96    285
85.98    268
86.0     244
86.02    200
86.04    128
86.06    94
86.08    63
86.1     111
86.12    139
86.14    195
86.16    263
86.18    308
86.2     363
86.22    392
86.24    419
86.26    421
86.28    437
86.3     506
86.32    534
86.34    592
86.36    598
86.38    599
86.4     582
86.42    544
86.44    537
86.46    490
86.48    521
86.5     551
86.52    561
86.54    590
86.56    568
86.58    567
86.6     486
86.62    452
86.64    440
86.66    371
86.68    358
86.7     358
86.72    358
86.74    363
86.76    359
86.78    304
86.8     231
86.82    235
86.84    274
86.86    265
86.88    289
86.9     316
86.92    336
86.94    341
86.96    328
86.98    308
87.0     288
87.02    281
87.04    295
87.06    314
87.08    318
87.1     307
87.12    324
87.14    288
87.16    272
87.18    287
87.2     302
87.22    253
87.24    240
87.26    263
87.28    229
87.3     216
87.32    213
87.34    180
87.36    198
87.38    203
87.4     232
87.42    233
87.44    266
87.46    271
87.48    243
87.5     245
87.52    235
87.54    202
87.56    193
87.58    155
87.6     176
87.62    208
87.64    239
87.66    284
87.68    293
87.7     308
87.72    267
87.74    280
87.76    312
87.78    297
87.8     289
87.82    307
87.84    305
87.86    307
87.88    257
87.9     241
87.92    205
87.94    241
87.96    242
87.98    223
88.0     227
88.02    247
88.04    197
88.06    214
88.08    237
88.1     280
88.12    287
88.14    285
88.16    290
88.18    285
88.2     301
88.22    286
88.24    255
88.26    278
88.28    297
88.3     296
88.32    297
88.34    310
88.36    304
88.38    260
88.4     258
88.42    257
88.44    246
88.46    268
88.48    261
88.5     241
88.52    258
88.54    282
88.56    256
88.58    238
88.6     214
88.62    200
88.64    222
88.66    262
88.68    278
88.7     272
88.72    272
88.74    291
88.76    291
88.78    276
88.8     210
88.82    160
88.84    160
88.86    164
88.88    228
88.9     240
88.92    245
88.94    244
88.96    242
88.98    210
89.0     194
89.02    201
89.04    226
89.06    215
89.08    269
89.1     305
89.12    288
89.14    258
89.16    215
89.18    185
89.2     212
89.22    245
89.24    265
89.26    230
89.28    265
89.3     268
89.32    233
89.34    223
89.36    215
89.38    198
89.4     225
89.42    241
89.44    290
89.46    330
89.48    356
89.5     315
89.52    285
89.54    293
89.56    313
89.58    295
89.6     270
89.62    210
89.64    222
89.66    263
89.68    254
89.7     224
89.72    240
89.74    258
89.76    289
89.78    313
89.8     285
89.82    232
89.84    221
89.86    224
89.88    219
89.9     219
89.92    261
89.94    277
89.96    327
89.98    340
90.0     337
