?
5.0      754
5.02     754
5.04     977
5.06     890
5.08     910
5.1      896
5.12     910
5.14     934
5.16     926
5.18     920
5.2      912
5.22     911
5.24     900
5.26     900
5.28     941
5.3      930
5.32     967
5.34     969
5.36     919
5.38     887
5.4      872
5.42     848
5.44     880
5.46     924
5.48     958
5.5      963
5.52     987
5.54     965
5.56     931
5.58     890
5.6      882
5.62     907
5.64     927
5.66     941
5.68     942
5.7      935
5.72     938
5.74     941
5.76     931
5.78     925
5.8      947
5.82     942
5.84     940
5.86     923
5.88     918
5.9      909
5.92     914
5.94     921
5.96     942
5.98     916
6.0      917
6.02     907
6.04     932
6.06     897
6.08     915
6.1      942
6.12     952
6.14     953
6.16     956
6.18     902
6.2      951
6.22     933
6.24     940
6.26     939
6.28     972
6.3      976
6.32     938
6.34     899
6.36     856
6.38     871
6.4      889
6.42     861
6.44     875
6.46     931
6.48     977
6.5      1015
6.52     1031
6.54     1001
6.56     986
6.58     1036
6.6      997
6.62     975
6.64     949
6.66     949
6.68     957
6.7      971
6.72     964
6.74     938
6.76     936
6.78     959
6.8      965
6.82     975
6.84     987
6.86     1004
6.88     1021
6.9      1026
6.92     1035
6.94     1040
6.96     1005
6.98     1014
7.0      1024
7.02     1018
7.04     1034
7.06     1025
7.08     997
7.1      1017
7.12     1022
7.14     977
7.16     975
7.18     978
7.2      996
7.22     988
7.24     998
7.26     979
7.28     958
7.3      952
7.32     954
7.34     964
7.36     1023
7.38     1025
7.4      1099
7.42     1056
7.44     1093
7.46     1038
7.48     1067
7.5      984
7.52     990
7.54     1005
7.56     1005
7.58     1048
7.6      1043
7.62     1051
7.64     1068
7.66     1083
7.68     1120
7.7      1014
7.72     1013
7.74     986
7.76     985
7.78     996
7.8      960
7.82     981
7.84     964
7.86     1003
7.88     1011
7.9      1019
7.92     1040
7.94     1049
7.96     1067
7.98     1066
8.0      1062
8.02     1065
8.04     1076
8.06     1086
8.08     1056
8.1      1056
8.12     1035
8.14     1000
8.16     1014
8.18     1004
8.2      999
8.22     1044
8.24     1073
8.26     1062
8.28     981
8.3      1040
8.32     1015
8.34     1008
8.36     1025
8.38     1011
8.4      1007
8.42     1060
8.44     1090
8.46     1067
8.48     1096
8.5      1126
8.52     1102
8.54     1096
8.56     1070
8.58     1008
8.6      968
8.62     1024
8.64     1034
8.66     1056
8.68     1111
8.7      1082
8.72     1129
8.74     1122
8.76     1094
8.78     1031
8.8      1028
8.82     1065
8.84     1041
8.86     998
8.88     1002
8.9      992
8.92     1032
8.94     1006
8.96     1043
8.98     1025
9.0      1060
9.02     1094
9.04     1047
9.06     995
9.08     1006
9.1      974
9.12     943
9.14     913
9.16     976
9.18     942
9.2      965
9.22     991
9.24     973
9.26     1004
9.28     1011
9.3      978
9.32     967
9.34     953
9.36     972
9.38     941
9.4      968
9.42     986
9.44     975
9.46     1013
9.48     1010
9.5      978
9.52     981
9.54     927
9.56     877
9.58     889
9.6      914
9.62     872
9.64     920
9.66     927
9.68     922
9.7      929
9.72     870
9.74     784
9.76     740
9.78     742
9.8      695
9.82     712
9.84     780
9.86     751
9.88     785
9.9      835
9.92     797
9.94     796
9.96     843
9.98     825
10.0     821
10.02    872
10.04    858
10.06    859
10.08    916
10.1     900
10.12    905
10.14    928
10.16    907
10.18    845
10.2     838
10.22    784
10.24    768
10.26    748
10.28    809
10.3     783
10.32    838
10.34    845
10.36    817
10.38    852
10.4     842
10.42    828
10.44    892
10.46    844
10.48    827
10.5     812
10.52    791
10.54    702
10.56    683
10.58    699
10.6     688
10.62    745
10.64    772
10.66    779
10.68    783
10.7     844
10.72    805
10.74    792
10.76    778
10.78    775
10.8     732
10.82    713
10.84    670
10.86    687
10.88    692
10.9     703
10.92    750
10.94    808
10.96    836
10.98    871
11.0     883
11.02    841
11.04    795
11.06    759
11.08    742
11.1     685
11.12    735
11.14    715
11.16    684
11.18    675
11.2     690
11.22    673
11.24    668
11.26    683
11.28    738
11.3     724
11.32    782
11.34    818
11.36    812
11.38    774
11.4     836
11.42    818
11.44    791
11.46    794
11.48    805
11.5     830
11.52    816
11.54    875
11.56    882
11.58    834
11.6     869
11.62    826
11.64    858
11.66    843
11.68    835
11.7     835
11.72    789
11.74    791
11.76    795
11.78    746
11.8     787
11.82    836
11.84    829
11.86    810
11.88    853
11.9     855
11.92    840
11.94    830
11.96    827
11.98    849
12.0     897
12.02    881
12.04    833
12.06    811
12.08    886
12.1     877
12.12    883
12.14    926
12.16    902
12.18    900
12.2     885
12.22    853
12.24    817
12.26    779
12.28    818
12.3     779
12.32    827
12.34    858
12.36    887
12.38    862
12.4     911
12.42    935
12.44    956
12.46    981
12.48    990
12.5     935
12.52    922
12.54    946
12.56    989
12.58    934
12.6     932
12.62    923
12.64    920
12.66    899
12.68    877
12.7     828
12.72    855
12.74    884
12.76    942
12.78    948
12.8     924
12.82    914
12.84    903
12.86    864
12.88    845
12.9     862
12.92    879
12.94    877
12.96    929
12.98    968
13.0     962
13.02    991
13.04    1014
13.06    952
13.08    907
13.1     920
13.12    928
13.14    954
13.16    943
13.18    974
13.2     1000
13.22    937
13.24    895
13.26    853
13.28    844
13.3     891
13.32    921
13.34    958
13.36    1010
13.38    1036
13.4     1099
13.42    1082
13.44    1064
13.46    1073
13.48    1121
13.5     1160
13.52    1174
13.54    1183
13.56    1181
13.58    1154
13.6     1223
13.62    1215
13.64    1171
13.66    1139
13.68    1142
13.7     1146
13.72    1116
13.74    1079
13.76    1026
13.78    1039
13.8     1060
13.82    1033
13.84    1040
13.86    1052
13.88    1054
13.9     1052
13.92    1071
13.94    1111
13.96    1118
13.98    1153
14.0     1111
14.02    1113
14.04    1116
14.06    1175
14.08    1129
14.1     1065
14.12    1134
14.14    1100
14.16    1113
14.18    1116
14.2     1094
14.22    1115
14.24    1089
14.26    1078
14.28    1046
14.3     1083
14.32    1092
14.34    1000
14.36    1038
14.38    1099
14.4     1121
14.42    1103
14.44    1052
14.46    1079
14.48    1152
14.5     1218
14.52    1179
14.54    1159
14.56    1179
14.58    1143
14.6     1056
14.62    1023
14.64    1014
14.66    1094
14.68    1164
14.7     1205
14.72    1263
14.74    1283
14.76    1263
14.78    1188
14.8     1170
14.82    1189
14.84    1259
14.86    1261
14.88    1303
14.9     1337
14.92    1391
14.94    1343
14.96    1333
14.98    1357
15.0     1328
15.02    1209
15.04    1227
15.06    1211
15.08    1245
15.1     1205
15.12    1208
15.14    1230
15.16    1228
15.18    1229
15.2     1208
15.22    1131
15.24    1192
15.26    1227
15.28    1193
15.3     1105
15.32    1116
15.34    1132
15.36    1139
15.38    1126
15.4     1173
15.42    1193
15.44    1269
15.46    1282
15.48    1264
15.5     1218
15.52    1251
15.54    1288
15.56    1336
15.58    1247
15.6     1250
15.62    1333
15.64    1375
15.66    1320
15.68    1295
15.7     1349
15.72    1402
15.74    1363
15.76    1348
15.78    1347
15.8     1370
15.82    1441
15.84    1481
15.86    1466
15.88    1517
15.9     1635
15.92    1629
15.94    1566
15.96    1671
15.98    1822
16.0     1828
16.02    1939
16.04    2086
16.06    2150
16.08    2240
16.1     2353
16.12    2477
16.14    2653
16.16    2841
16.18    3034
16.2     3309
16.22    3715
16.24    4141
16.26    4644
16.28    5201
16.3     6012
16.32    7118
16.34    8346
16.36    9685
16.38    11469
16.4     13824
16.42    16737
16.44    20317
16.46    24679
16.48    29649
16.5     35007
16.52    39920
16.54    43456
16.56    44744
16.58    43370
16.6     39550
16.62    33797
16.64    27034
16.66    20407
16.68    14710
16.7     10415
16.72    7556
16.74    5897
16.76    4823
16.78    4051
16.8     3553
16.82    3215
16.84    2836
16.86    2612
16.88    2435
16.9     2306
16.92    2123
16.94    2068
16.96    1989
16.98    1889
17.0     1819
17.02    1826
17.04    1724
17.06    1658
17.08    1653
17.1     1646
17.12    1574
17.14    1599
17.16    1580
17.18    1507
17.2     1448
17.22    1476
17.24    1482
17.26    1448
17.28    1436
17.3     1368
17.32    1338
17.34    1358
17.36    1360
17.38    1300
17.4     1289
17.42    1304
17.44    1320
17.46    1319
17.48    1274
17.5     1208
17.52    1212
17.54    1209
17.56    1161
17.58    1119
17.6     1144
17.62    1151
17.64    1159
17.66    1178
17.68    1205
17.7     1189
17.72    1161
17.74    1121
17.76    1094
17.78    1135
17.8     1147
17.82    1117
17.84    1079
17.86    1057
17.88    994
17.9     965
17.92    943
17.94    917
17.96    979
17.98    1091
18.0     1097
18.02    1092
18.04    1067
18.06    1032
18.08    993
18.1     1010
18.12    1022
18.14    989
18.16    1052
18.18    1068
18.2     931
18.22    839
18.24    789
18.26    763
18.28    786
18.3     903
18.32    984
18.34    1037
18.36    1046
18.38    1047
18.4     980
18.42    969
18.44    970
18.46    924
18.48    888
18.5     886
18.52    851
18.54    871
18.56    797
18.58    773
18.6     777
18.62    809
18.64    816
18.66    829
18.68    831
18.7     882
18.72    921
18.74    971
18.76    921
18.78    867
18.8     890
18.82    891
18.84    905
18.86    875
18.88    866
18.9     870
18.92    879
18.94    950
18.96    954
18.98    866
19.0     802
19.02    750
19.04    743
19.06    666
19.08    724
19.1     756
19.12    803
19.14    942
19.16    977
19.18    913
19.2     868
19.22    823
19.24    745
19.26    704
19.28    710
19.3     656
19.32    611
19.34    630
19.36    698
19.38    786
19.4     841
19.42    825
19.44    792
19.46    795
19.48    839
19.5     822
19.52    761
19.54    714
19.56    790
19.58    794
19.6     773
19.62    736
19.64    747
19.66    738
19.68    725
19.7     672
19.72    620
19.74    586
19.76    591
19.78    555
19.8     524
19.82    543
19.84    609
19.86    600
19.88    502
19.9     512
19.92    583
19.94    673
19.96    717
19.98    757
20.0     705
20.02    687
20.04    666
20.06    563
20.08    465
20.1     484
20.12    600
20.14    657
20.16    646
20.18    643
20.2     628
20.22    667
20.24    694
20.26    707
20.28    753
20.3     764
20.32    777
20.34    769
20.36    715
20.38    638
20.4     604
20.42    628
20.44    587
20.46    554
20.48    589
20.5     637
20.52    670
20.54    713
20.56    769
20.58    791
20.6     774
20.62    771
20.64    702
20.66    715
20.68    683
20.7     708
20.72    649
20.74    665
20.76    683
20.78    698
20.8     643
20.82    627
20.84    648
20.86    694
20.88    588
20.9     616
20.92    606
20.94    636
20.96    579
20.98    606
21.0     604
21.02    627
21.04    633
21.06    646
21.08    612
21.1     692
21.12    735
21.14    692
21.16    637
21.18    613
21.2     587
21.22    621
21.24    642
21.26    669
21.28    649
21.3     681
21.32    639
21.34    593
21.36    546
21.38    533
21.4     542
21.42    598
21.44    602
21.46    587
21.48    517
21.5     492
21.52    487
21.54    550
21.56    558
21.58    609
21.6     676
21.62    685
21.64    662
21.66    675
21.68    606
21.7     646
21.72    626
21.74    554
21.76    458
21.78    422
21.8     469
21.82    512
21.84    441
21.86    472
21.88    464
21.9     587
21.92    576
21.94    559
21.96    532
21.98    553
22.0     640
22.02    654
22.04    549
22.06    522
22.08    486
22.1     493
22.12    452
22.14    392
22.16    381
22.18    428
22.2     533
22.22    536
22.24    549
22.26    558
22.28    548
22.3     539
22.32    513
22.34    466
22.36    456
22.38    500
22.4     570
22.42    562
22.44    547
22.46    558
22.48    485
22.5     491
22.52    482
22.54    456
22.56    450
22.58    472
22.6     473
22.62    468
22.64    453
22.66    501
22.68    470
22.7     545
22.72    592
22.74    648
22.76    633
22.78    573
22.8     504
22.82    476
22.84    427
22.86    456
22.88    423
22.9     494
22.92    486
22.94    503
22.96    436
22.98    457
23.0     398
23.02    403
23.04    403
23.06    476
23.08    490
23.1     539
23.12    472
23.14    522
23.16    499
23.18    548
23.2     426
23.22    427
23.24    419
23.26    475
23.28    446
23.3     476
23.32    475
23.34    572
23.36    593
23.38    668
23.4     563
23.42    516
23.44    423
23.46    368
23.48    322
23.5     367
23.52    409
23.54    463
23.56    534
23.58    616
23.6     577
23.62    503
23.64    445
23.66    413
23.68    440
23.7     492
23.72    524
23.74    473
23.76    476
23.78    425
23.8     397
23.82    353
23.84    394
23.86    396
23.88    449
23.9     528
23.92    565
23.94    525
23.96    544
23.98    473
24.0     470
24.02    400
24.04    374
24.06    348
24.08    366
24.1     426
24.12    437
24.14    408
24.16    431
24.18    446
24.2     497
24.22    499
24.24    440
24.26    418
24.28    377
24.3     516
24.32    565
24.34    541
24.36    504
24.38    500
24.4     536
24.42    508
24.44    405
24.46    292
24.48    278
24.5     395
24.52    485
24.54    501
24.56    529
24.58    529
24.6     592
24.62    540
24.64    569
24.66    479
24.68    468
24.7     413
24.72    458
24.74    469
24.76    452
24.78    452
24.8     441
24.82    421
24.84    443
24.86    400
24.88    366
24.9     363
24.92    396
24.94    415
24.96    416
24.98    444
25.0     445
25.02    470
25.04    479
25.06    459
25.08    474
25.1     508
25.12    519
25.14    506
25.16    466
25.18    375
25.2     285
25.22    244
25.24    263
25.26    310
25.28    422
25.3     442
25.32    519
25.34    520
25.36    461
25.38    362
25.4     350
25.42    387
25.44    415
25.46    451
25.48    416
25.5     352
25.52    397
25.54    366
25.56    368
25.58    374
25.6     443
25.62    410
25.64    377
25.66    347
25.68    344
25.7     383
25.72    486
25.74    530
25.76    579
25.78    524
25.8     419
25.82    324
25.84    292
25.86    321
25.88    378
25.9     400
25.92    445
25.94    424
25.96    405
25.98    362
26.0     352
26.02    378
26.04    420
26.06    478
26.08    458
26.1     428
26.12    408
26.14    363
26.16    388
26.18    387
26.2     407
26.22    417
26.24    488
26.26    516
26.28    498
26.3     522
26.32    520
26.34    525
26.36    528
26.38    432
26.4     434
26.42    401
26.44    460
26.46    415
26.48    432
26.5     422
26.52    434
26.54    405
26.56    324
26.58    291
26.6     323
26.62    314
26.64    410
26.66    389
26.68    420
26.7     389
26.72    379
26.74    338
26.76    317
26.78    392
26.8     411
26.82    404
26.84    458
26.86    392
26.88    396
26.9     363
26.92    307
26.94    324
26.96    388
26.98    484
27.0     510
27.02    485
27.04    471
27.06    429
27.08    451
27.1     405
27.12    341
27.14    358
27.16    444
27.18    436
27.2     444
27.22    398
27.24    413
27.26    400
27.28    357
27.3     293
27.32    282
27.34    309
27.36    422
27.38    407
27.4     399
27.42    341
27.44    390
27.46    362
27.48    379
27.5     416
27.52    438
27.54    450
27.56    580
27.58    548
27.6     457
27.62    384
27.64    336
27.66    306
27.68    338
27.7     377
27.72    360
27.74    354
27.76    418
27.78    339
27.8     295
27.82    268
27.84    281
27.86    357
27.88    412
27.9     469
27.92    481
27.94    443
27.96    455
27.98    391
28.0     324
28.02    255
28.04    274
28.06    333
28.08    352
28.1     412
28.12    418
28.14    405
28.16    422
28.18    428
28.2     360
28.22    344
28.24    328
28.26    312
28.28    305
28.3     349
28.32    384
28.34    404
28.36    438
28.38    481
28.4     465
28.42    500
28.44    456
28.46    396
28.48    358
28.5     336
28.52    327
28.54    353
28.56    384
28.58    397
28.6     374
28.62    382
28.64    385
28.66    386
28.68    302
28.7     285
28.72    233
28.74    284
28.76    352
28.78    406
28.8     400
28.82    382
28.84    342
28.86    294
28.88    221
28.9     201
28.92    134
28.94    156
28.96    197
28.98    211
29.0     221
29.02    236
29.04    273
29.06    330
29.08    382
29.1     400
29.12    455
29.14    455
29.16    530
29.18    598
29.2     616
29.22    611
29.24    515
29.26    444
29.28    375
29.3     300
29.32    300
29.34    238
29.36    280
29.38    282
29.4     295
29.42    348
29.44    357
29.46    405
29.48    461
29.5     516
29.52    555
29.54    498
29.56    372
29.58    309
29.6     334
29.62    357
29.64    420
29.66    433
29.68    480
29.7     557
29.72    505
29.74    407
29.76    287
29.78    232
29.8     219
29.82    238
29.84    320
29.86    370
29.88    409
29.9     456
29.92    432
29.94    412
29.96    441
29.98    448
30.0     477
30.02    463
30.04    439
30.06    405
30.08    370
30.1     376
30.12    376
30.14    423
30.16    498
30.18    535
30.2     562
30.22    486
30.24    483
30.26    462
30.28    433
30.3     457
30.32    387
30.34    394
30.36    414
30.38    379
30.4     414
30.42    325
30.44    337
30.46    335
30.48    326
30.5     340
30.52    316
30.54    365
30.56    392
30.58    435
30.6     478
30.62    442
30.64    449
30.66    458
30.68    446
30.7     411
30.72    353
30.74    366
30.76    379
30.78    434
30.8     426
30.82    447
30.84    439
30.86    376
30.88    338
30.9     294
30.92    307
30.94    344
30.96    349
30.98    362
31.0     344
31.02    343
31.04    370
31.06    346
31.08    368
31.1     351
31.12    377
31.14    359
31.16    307
31.18    319
31.2     315
31.22    292
31.24    348
31.26    304
31.28    254
31.3     233
31.32    226
31.34    292
31.36    308
31.38    402
31.4     438
31.42    428
31.44    421
31.46    337
31.48    319
31.5     345
31.52    380
31.54    452
31.56    496
31.58    526
31.6     496
31.62    463
31.64    407
31.66    391
31.68    353
31.7     316
31.72    351
31.74    354
31.76    432
31.78    411
31.8     402
31.82    431
31.84    418
31.86    455
31.88    455
31.9     426
31.92    448
31.94    392
31.96    376
31.98    294
32.0     264
32.02    269
32.04    269
32.06    371
32.08    448
32.1     499
32.12    582
32.14    528
32.16    502
32.18    486
32.2     381
32.22    389
32.24    444
32.26    486
32.28    525
32.3     550
32.32    529
32.34    506
32.36    493
32.38    449
32.4     408
32.42    457
32.44    481
32.46    490
32.48    441
32.5     408
32.52    393
32.54    413
32.56    447
32.58    421
32.6     443
32.62    481
32.64    468
32.66    478
32.68    406
32.7     401
32.72    406
32.74    466
32.76    576
32.78    593
32.8     679
32.82    724
32.84    700
32.86    681
32.88    577
32.9     512
32.92    479
32.94    520
32.96    554
32.98    622
33.0     695
33.02    712
33.04    724
33.06    661
33.08    642
33.1     624
33.12    614
33.14    675
33.16    748
33.18    849
33.2     923
33.22    976
33.24    1023
33.26    1061
33.28    1196
33.3     1351
33.32    1613
33.34    1929
33.36    2348
33.38    2833
33.4     3413
33.42    4067
33.44    4918
33.46    5862
33.48    6936
33.5     8033
33.52    8953
33.54    9505
33.56    9717
33.58    9399
33.6     8569
33.62    7436
33.64    6136
33.66    4778
33.68    3718
33.7     2837
33.72    2207
33.74    1792
33.76    1590
33.78    1410
33.8     1288
33.82    1226
33.84    1106
33.86    1023
33.88    955
33.9     833
33.92    700
33.94    594
33.96    568
33.98    503
34.0     558
34.02    622
34.04    650
34.06    698
34.08    686
34.1     672
34.12    672
34.14    718
34.16    729
34.18    777
34.2     791
34.22    790
34.24    709
34.26    651
34.28    587
34.3     551
34.32    585
34.34    597
34.36    554
34.38    546
34.4     520
34.42    547
34.44    535
34.46    591
34.48    652
34.5     644
34.52    645
34.54    617
34.56    520
34.58    470
34.6     451
34.62    450
34.64    469
34.66    640
34.68    718
34.7     769
34.72    798
34.74    749
34.76    672
34.78    621
34.8     523
34.82    501
34.84    538
34.86    703
34.88    832
34.9     1081
34.92    1325
34.94    1621
34.96    2010
34.98    2491
35.0     3140
35.02    4003
35.04    5114
35.06    6428
35.08    7827
35.1     9034
35.12    9757
35.14    9895
35.16    9472
35.18    8491
35.2     7254
35.22    5923
35.24    4722
35.26    3788
35.28    3155
35.3     2666
35.32    2203
35.34    1882
35.36    1620
35.38    1293
35.4     1114
35.42    987
35.44    869
35.46    857
35.48    827
35.5     730
35.52    675
35.54    697
35.56    681
35.58    643
35.6     642
35.62    675
35.64    692
35.66    682
35.68    599
35.7     510
35.72    532
35.74    550
35.76    613
35.78    660
35.8     645
35.82    677
35.84    659
35.86    576
35.88    551
35.9     605
35.92    652
35.94    715
35.96    790
35.98    757
36.0     710
36.02    683
36.04    680
36.06    715
36.08    800
36.1     958
36.12    1066
36.14    1162
36.16    1206
36.18    1224
36.2     1282
36.22    1411
36.24    1638
36.26    1932
36.28    2395
36.3     3084
36.32    3824
36.34    4924
36.36    6471
36.38    8513
36.4     11021
36.42    13925
36.44    16654
36.46    18847
36.48    20135
36.5     20257
36.52    19146
36.54    17225
36.56    14707
36.58    12048
36.6     9619
36.62    7676
36.64    6046
36.66    4766
36.68    3797
36.7     3024
36.72    2476
36.74    1987
36.76    1698
36.78    1446
36.8     1264
36.82    1155
36.84    1098
36.86    1026
36.88    1047
36.9     1021
36.92    1039
36.94    907
36.96    853
36.98    718
37.0     659
37.02    681
37.04    727
37.06    785
37.08    766
37.1     796
37.12    793
37.14    675
37.16    620
37.18    586
37.2     578
37.22    643
37.24    731
37.26    805
37.28    734
37.3     777
37.32    751
37.34    769
37.36    798
37.38    802
37.4     772
37.42    787
37.44    743
37.46    693
37.48    653
37.5     649
37.52    620
37.54    628
37.56    562
37.58    550
37.6     550
37.62    497
37.64    411
37.66    460
37.68    519
37.7     542
37.72    589
37.74    591
37.76    521
37.78    557
37.8     602
37.82    585
37.84    593
37.86    630
37.88    614
37.9     620
37.92    635
37.94    585
37.96    506
37.98    550
38.0     602
38.02    642
38.04    684
38.06    669
38.08    636
38.1     606
38.12    529
38.14    437
38.16    412
38.18    439
38.2     476
38.22    514
38.24    583
38.26    585
38.28    593
38.3     540
38.32    407
38.34    319
38.36    327
38.38    282
38.4     262
38.42    311
38.44    361
38.46    355
38.48    360
38.5     332
38.52    298
38.54    326
38.56    399
38.58    458
38.6     482
38.62    509
38.64    485
38.66    446
38.68    362
38.7     387
38.72    418
38.74    399
38.76    396
38.78    459
38.8     455
38.82    427
38.84    473
38.86    483
38.88    415
38.9     484
38.92    485
38.94    401
38.96    313
38.98    308
39.0     272
39.02    318
39.04    400
39.06    450
39.08    488
39.1     571
39.12    560
39.14    547
39.16    506
39.18    467
39.2     399
39.22    464
39.24    458
39.26    463
39.28    499
39.3     460
39.32    449
39.34    502
39.36    523
39.38    506
39.4     474
39.42    485
39.44    455
39.46    436
39.48    397
39.5     364
39.52    418
39.54    458
39.56    510
39.58    589
39.6     580
39.62    555
39.64    484
39.66    443
39.68    359
39.7     398
39.72    373
39.74    377
39.76    415
39.78    502
39.8     488
39.82    505
39.84    505
39.86    558
39.88    518
39.9     537
39.92    464
39.94    425
39.96    436
39.98    474
40.0     478
40.02    571
40.04    709
40.06    747
40.08    718
40.1     775
40.12    758
40.14    753
40.16    811
40.18    843
40.2     819
40.22    870
40.24    905
40.26    796
40.28    737
40.3     721
40.32    637
40.34    602
40.36    638
40.38    694
40.4     705
40.42    740
40.44    792
40.46    803
40.48    842
40.5     865
40.52    916
40.54    956
40.56    1022
40.58    1044
40.6     988
40.62    886
40.64    874
40.66    798
40.68    745
40.7     768
40.72    919
40.74    1033
40.76    1125
40.78    1212
40.8     1248
40.82    1202
40.84    1155
40.86    1115
40.88    1105
40.9     1152
40.92    1298
40.94    1388
40.96    1401
40.98    1530
41.0     1594
41.02    1590
41.04    1681
41.06    1834
41.08    1954
41.1     2091
41.12    2276
41.14    2451
41.16    2616
41.18    3007
41.2     3366
41.22    3800
41.24    4400
41.26    5074
41.28    5872
41.3     6852
41.32    8078
41.34    9609
41.36    11604
41.38    14309
41.4     17860
41.42    22581
41.44    28712
41.46    36390
41.48    45269
41.5     54127
41.52    61874
41.54    67223
41.56    69162
41.58    67378
41.6     62409
41.62    55013
41.64    46354
41.66    37828
41.68    30221
41.7     23700
41.72    18618
41.74    14672
41.76    11589
41.78    9268
41.8     7703
41.82    6567
41.84    5614
41.86    4914
41.88    4265
41.9     3765
41.92    3351
41.94    2921
41.96    2632
41.98    2415
42.0     2280
42.02    2143
42.04    2041
42.06    1979
42.08    1865
42.1     1812
42.12    1704
42.14    1520
42.16    1463
42.18    1426
42.2     1327
42.22    1250
42.24    1221
42.26    1233
42.28    1163
42.3     1140
42.32    1077
42.34    1033
42.36    986
42.38    970
42.4     969
42.42    1022
42.44    1024
42.46    1123
42.48    1091
42.5     1043
42.52    984
42.54    871
42.56    724
42.58    677
42.6     649
42.62    688
42.64    707
42.66    850
42.68    922
42.7     932
42.72    958
42.74    884
42.76    868
42.78    838
42.8     783
42.82    791
42.84    715
42.86    785
42.88    771
42.9     720
42.92    682
42.94    641
42.96    719
42.98    776
43.0     808
43.02    853
43.04    854
43.06    885
43.08    804
43.1     694
43.12    580
43.14    479
43.16    474
43.18    494
43.2     527
43.22    625
43.24    732
43.26    752
43.28    766
43.3     711
43.32    690
43.34    596
43.36    540
43.38    534
43.4     502
43.42    515
43.44    591
43.46    654
43.48    677
43.5     713
43.52    722
43.54    695
43.56    629
43.58    597
43.6     512
43.62    479
43.64    491
43.66    564
43.68    581
43.7     614
43.72    623
43.74    669
43.76    650
43.78    634
43.8     616
43.82    628
43.84    577
43.86    578
43.88    548
43.9     520
43.92    517
43.94    500
43.96    442
43.98    422
44.0     451
44.02    455
44.04    402
44.06    469
44.08    543
44.1     633
44.12    649
44.14    662
44.16    666
44.18    637
44.2     581
44.22    456
44.24    435
44.26    487
44.28    492
44.3     520
44.32    549
44.34    627
44.36    630
44.38    557
44.4     534
44.42    435
44.44    435
44.46    395
44.48    425
44.5     456
44.52    518
44.54    622
44.56    677
44.58    719
44.6     712
44.62    619
44.64    510
44.66    420
44.68    350
44.7     323
44.72    370
44.74    553
44.76    768
44.78    861
44.8     923
44.82    945
44.84    935
44.86    886
44.88    797
44.9     829
44.92    868
44.94    991
44.96    1160
44.98    1284
45.0     1469
45.02    1603
45.04    1680
45.06    1654
45.08    1600
45.1     1477
45.12    1286
45.14    1154
45.16    1020
45.18    968
45.2     932
45.22    873
45.24    818
45.26    784
45.28    751
45.3     667
45.32    614
45.34    618
45.36    598
45.38    661
45.4     656
45.42    660
45.44    702
45.46    758
45.48    701
45.5     599
45.52    556
45.54    534
45.56    442
45.58    383
45.6     345
45.62    412
45.64    449
45.66    519
45.68    528
45.7     558
45.72    609
45.74    621
45.76    580
45.78    544
45.8     489
45.82    495
45.84    412
45.86    417
45.88    427
45.9     511
45.92    548
45.94    606
45.96    661
45.98    676
46.0     713
46.02    654
46.04    541
46.06    498
46.08    436
46.1     439
46.12    357
46.14    333
46.16    357
46.18    373
46.2     466
46.22    410
46.24    455
46.26    567
46.28    602
46.3     610
46.32    598
46.34    596
46.36    581
46.38    535
46.4     534
46.42    486
46.44    486
46.46    467
46.48    457
46.5     443
46.52    452
46.54    448
46.56    496
46.58    584
46.6     620
46.62    643
46.64    666
46.66    616
46.68    607
46.7     515
46.72    450
46.74    422
46.76    406
46.78    425
46.8     405
46.82    473
46.84    544
46.86    517
46.88    511
46.9     482
46.92    506
46.94    498
46.96    412
46.98    416
47.0     429
47.02    479
47.04    487
47.06    474
47.08    510
47.1     545
47.12    586
47.14    577
47.16    545
47.18    579
47.2     614
47.22    551
47.24    479
47.26    412
47.28    391
47.3     361
47.32    304
47.34    294
47.36    362
47.38    467
47.4     501
47.42    557
47.44    568
47.46    637
47.48    656
47.5     620
47.52    534
47.54    521
47.56    528
47.58    472
47.6     481
47.62    522
47.64    530
47.66    579
47.68    575
47.7     608
47.72    585
47.74    586
47.76    561
47.78    478
47.8     485
47.82    411
47.84    365
47.86    280
47.88    331
47.9     390
47.92    417
47.94    520
47.96    605
47.98    650
48.0     649
48.02    619
48.04    550
48.06    425
48.08    330
48.1     290
48.12    248
48.14    306
48.16    409
48.18    475
48.2     569
48.22    667
48.24    658
48.26    639
48.28    566
48.3     567
48.32    498
48.34    453
48.36    486
48.38    485
48.4     496
48.42    493
48.44    445
48.46    448
48.48    430
48.5     411
48.52    414
48.54    389
48.56    444
48.58    476
48.6     486
48.62    461
48.64    472
48.66    421
48.68    456
48.7     434
48.72    394
48.74    415
48.76    428
48.78    430
48.8     412
48.82    381
48.84    360
48.86    283
48.88    329
48.9     303
48.92    322
48.94    393
48.96    454
48.98    529
49.0     585
49.02    578
49.04    495
49.06    423
49.08    438
49.1     376
49.12    353
49.14    341
49.16    480
49.18    570
49.2     596
49.22    528
49.24    469
49.26    403
49.28    367
49.3     300
49.32    262
49.34    276
49.36    378
49.38    397
49.4     443
49.42    435
49.44    445
49.46    430
49.48    398
49.5     425
49.52    408
49.54    435
49.56    462
49.58    462
49.6     500
49.62    512
49.64    497
49.66    483
49.68    481
49.7     476
49.72    427
49.74    411
49.76    361
49.78    328
49.8     306
49.82    278
49.84    288
49.86    347
49.88    413
49.9     421
49.92    419
49.94    405
49.96    365
49.98    374
50.0     339
50.02    312
50.04    386
50.06    436
50.08    480
50.1     509
50.12    488
50.14    449
50.16    469
50.18    432
50.2     344
50.22    305
50.24    299
50.26    298
50.28    380
50.3     407
50.32    437
50.34    495
50.36    556
50.38    505
50.4     441
50.42    401
50.44    306
50.46    293
50.48    291
50.5     226
50.52    242
50.54    281
50.56    318
50.58    383
50.6     437
50.62    481
50.64    528
50.66    593
50.68    562
50.7     536
50.72    429
50.74    381
50.76    347
50.78    368
50.8     356
50.82    378
50.84    396
50.86    453
50.88    529
50.9     554
50.92    520
50.94    571
50.96    588
50.98    601
51.0     488
51.02    431
51.04    317
51.06    268
51.08    227
51.1     193
51.12    264
51.14    344
51.16    441
51.18    534
51.2     561
51.22    656
51.24    692
51.26    672
51.28    590
51.3     527
51.32    501
51.34    433
51.36    376
51.38    345
51.4     349
51.42    449
51.44    562
51.46    620
51.48    571
51.5     576
51.52    612
51.54    545
51.56    445
51.58    344
51.6     300
51.62    393
51.64    430
51.66    435
51.68    432
51.7     519
51.72    673
51.74    716
51.76    695
51.78    637
51.8     585
51.82    600
51.84    488
51.86    362
51.88    266
51.9     289
51.92    438
51.94    532
51.96    567
51.98    584
52.0     573
52.02    631
52.04    527
52.06    380
52.08    293
52.1     278
52.12    364
52.14    486
52.16    521
52.18    640
52.2     682
52.22    758
52.24    735
52.26    753
52.28    703
52.3     643
52.32    570
52.34    541
52.36    438
52.38    457
52.4     330
52.42    332
52.44    342
52.46    458
52.48    478
52.5     579
52.52    575
52.54    624
52.56    673
52.58    705
52.6     646
52.62    615
52.64    559
52.66    533
52.68    456
52.7     474
52.72    402
52.74    396
52.76    508
52.78    588
52.8     666
52.82    764
52.84    739
52.86    740
52.88    739
52.9     709
52.92    645
52.94    607
52.96    653
52.98    752
53.0     857
53.02    873
53.04    847
53.06    928
53.08    985
53.1     948
53.12    958
53.14    939
53.16    970
53.18    1080
53.2     1220
53.22    1285
53.24    1535
53.26    1780
53.28    2025
53.3     2301
53.32    2621
53.34    2938
53.36    3405
53.38    3915
53.4     4539
53.42    5158
53.44    5806
53.46    6125
53.48    6273
53.5     6131
53.52    5700
53.54    5029
53.56    4396
53.58    3664
53.6     3088
53.62    2572
53.64    2139
53.66    1767
53.68    1559
53.7     1385
53.72    1251
53.74    1112
53.76    1121
53.78    1057
53.8     1043
53.82    887
53.84    752
53.86    681
53.88    645
53.9     597
53.92    563
53.94    523
53.96    568
53.98    600
54.0     637
54.02    621
54.04    653
54.06    664
54.08    677
54.1     610
54.12    542
54.14    473
54.16    469
54.18    484
54.2     453
54.22    526
54.24    562
54.26    598
54.28    672
54.3     667
54.32    590
54.34    603
54.36    578
54.38    532
54.4     437
54.42    419
54.44    380
54.46    432
54.48    454
54.5     438
54.52    471
54.54    567
54.56    602
54.58    605
54.6     561
54.62    544
54.64    538
54.66    499
54.68    404
54.7     374
54.72    372
54.74    434
54.76    471
54.78    505
54.8     524
54.82    620
54.84    613
54.86    571
54.88    538
54.9     485
54.92    458
54.94    444
54.96    343
54.98    281
55.0     307
55.02    393
55.04    371
55.06    424
55.08    468
55.1     512
55.12    612
55.14    619
55.16    602
55.18    556
55.2     538
55.22    560
55.24    549
55.26    535
55.28    449
55.3     428
55.32    426
55.34    428
55.36    445
55.38    391
55.4     390
55.42    471
55.44    508
55.46    541
55.48    494
55.5     484
55.52    448
55.54    527
55.56    557
55.58    559
55.6     503
55.62    504
55.64    512
55.66    521
55.68    496
55.7     482
55.72    444
55.74    520
55.76    545
55.78    534
55.8     521
55.82    574
55.84    585
55.86    532
55.88    495
55.9     421
55.92    366
55.94    328
55.96    344
55.98    364
56.0     414
56.02    418
56.04    434
56.06    411
56.08    412
56.1     435
56.12    466
56.14    440
56.16    536
56.18    619
56.2     639
56.22    604
56.24    579
56.26    532
56.28    560
56.3     565
56.32    552
56.34    536
56.36    582
56.38    630
56.4     631
56.42    570
56.44    533
56.46    476
56.48    470
56.5     426
56.52    471
56.54    437
56.56    405
56.58    409
56.6     429
56.62    454
56.64    477
56.66    442
56.68    436
56.7     519
56.72    610
56.74    569
56.76    541
56.78    552
56.8     592
56.82    626
56.84    604
56.86    538
56.88    516
56.9     577
56.92    561
56.94    463
56.96    455
56.98    425
57.0     436
57.02    526
57.04    563
57.06    578
57.08    627
57.1     689
57.12    695
57.14    676
57.16    681
57.18    576
57.2     570
57.22    618
57.24    650
57.26    631
57.28    612
57.3     560
57.32    550
57.34    537
57.36    474
57.38    498
57.4     572
57.42    614
57.44    696
57.46    727
57.48    722
57.5     708
57.52    743
57.54    744
57.56    769
57.58    846
57.6     820
57.62    782
57.64    818
57.66    843
57.68    883
57.7     866
57.72    911
57.74    980
57.76    1095
57.78    1147
57.8     1158
57.82    1230
57.84    1316
57.86    1425
57.88    1523
57.9     1502
57.92    1614
57.94    1762
57.96    1976
57.98    2183
58.0     2401
58.02    2678
58.04    3060
58.06    3535
58.08    4004
58.1     4554
58.12    5236
58.14    6085
58.16    7141
58.18    8260
58.2     9431
58.22    10741
58.24    11908
58.26    12813
58.28    13302
58.3     13314
58.32    12826
58.34    11961
58.36    10881
58.38    9506
58.4     8182
58.42    7003
58.44    5900
58.46    5029
58.48    4315
58.5     3710
58.52    3178
58.54    2796
58.56    2484
58.58    2220
58.6     2008
58.62    1865
58.64    1722
58.66    1638
58.68    1597
58.7     1463
58.72    1328
58.74    1238
58.76    1089
58.78    1040
58.8     960
58.82    922
58.84    781
58.86    750
58.88    697
58.9     628
58.92    654
58.94    691
58.96    731
58.98    814
59.0     885
59.02    817
59.04    802
59.06    728
59.08    630
59.1     580
59.12    492
59.14    463
59.16    422
59.18    452
59.2     498
59.22    505
59.24    607
59.26    586
59.28    603
59.3     575
59.32    547
59.34    559
59.36    555
59.38    593
59.4     644
59.42    658
59.44    687
59.46    652
59.48    593
59.5     532
59.52    483
59.54    410
59.56    396
59.58    403
59.6     470
59.62    488
59.64    542
59.66    539
59.68    572
59.7     634
59.72    606
59.74    617
59.76    604
59.78    605
59.8     615
59.82    502
59.84    440
59.86    396
59.88    386
59.9     450
59.92    508
59.94    607
59.96    619
59.98    657
60.0     663
60.02    571
60.04    539
60.06    512
60.08    475
60.1     472
60.12    535
60.14    624
60.16    611
60.18    658
60.2     684
60.22    639
60.24    609
60.26    617
60.28    588
60.3     519
60.32    538
60.34    538
60.36    455
60.38    492
60.4     482
60.42    440
60.44    427
60.46    479
60.48    464
60.5     446
60.52    498
60.54    531
60.56    545
60.58    589
60.6     605
60.62    559
60.64    564
60.66    559
60.68    538
60.7     491
60.72    471
60.74    498
60.76    498
60.78    555
60.8     539
60.82    533
60.84    583
60.86    614
60.88    641
60.9     561
60.92    543
60.94    552
60.96    564
60.98    531
61.0     464
61.02    462
61.04    461
61.06    492
61.08    513
61.1     526
61.12    611
61.14    617
61.16    618
61.18    530
61.2     551
61.22    517
61.24    522
61.26    498
61.28    494
61.3     517
61.32    560
61.34    588
61.36    597
61.38    589
61.4     623
61.42    590
61.44    601
61.46    597
61.48    652
61.5     701
61.52    774
61.54    830
61.56    840
61.58    827
61.6     739
61.62    684
61.64    652
61.66    641
61.68    666
61.7     729
61.72    774
61.74    846
61.76    929
61.78    1027
61.8     1092
61.82    1223
61.84    1387
61.86    1562
61.88    1795
61.9     2093
61.92    2397
61.94    2783
61.96    3219
61.98    3787
62.0     4512
62.02    5442
62.04    6617
62.06    7944
62.08    9414
62.1     10903
62.12    12173
62.14    13104
62.16    13521
62.18    13389
62.2     12826
62.22    11960
62.24    10848
62.26    9636
62.28    8534
62.3     7580
62.32    6698
62.34    5969
62.36    5240
62.38    4565
62.4     4062
62.42    3639
62.44    3164
62.46    2705
62.48    2406
62.5     2146
62.52    1891
62.54    1747
62.56    1581
62.58    1413
62.6     1346
62.62    1285
62.64    1232
62.66    1144
62.68    1119
62.7     1068
62.72    987
62.74    958
62.76    898
62.78    840
62.8     806
62.82    808
62.84    811
62.86    773
62.88    771
62.9     746
62.92    705
62.94    675
62.96    670
62.98    632
63.0     579
63.02    563
63.04    471
63.06    437
63.08    410
63.1     405
63.12    441
63.14    525
63.16    616
63.18    634
63.2     684
63.22    704
63.24    708
63.26    752
63.28    758
63.3     700
63.32    637
63.34    628
63.36    630
63.38    556
63.4     526
63.42    500
63.44    524
63.46    546
63.48    594
63.5     569
63.52    560
63.54    490
63.56    493
63.58    450
63.6     437
63.62    443
63.64    431
63.66    449
63.68    493
63.7     524
63.72    561
63.74    518
63.76    572
63.78    597
63.8     632
63.82    675
63.84    670
63.86    651
63.88    597
63.9     551
63.92    558
63.94    457
63.96    451
63.98    488
64.0     532
64.02    509
64.04    489
64.06    460
64.08    413
64.1     365
64.12    393
64.14    303
64.16    359
64.18    441
64.2     552
64.22    563
64.24    562
64.26    621
64.28    629
64.3     617
64.32    629
64.34    571
64.36    557
64.38    484
64.4     532
64.42    511
64.44    533
64.46    633
64.48    688
64.5     758
64.52    861
64.54    939
64.56    1019
64.58    1036
64.6     1190
64.62    1276
64.64    1391
64.66    1487
64.68    1708
64.7     1955
64.72    2237
64.74    2523
64.76    2900
64.78    3189
64.8     3494
64.82    3697
64.84    3812
64.86    3765
64.88    3685
64.9     3443
64.92    3191
64.94    2882
64.96    2679
64.98    2327
65.0     2094
65.02    1880
65.04    1759
65.06    1626
65.08    1536
65.1     1428
65.12    1364
65.14    1203
65.16    1172
65.18    1018
65.2     940
65.22    808
65.24    768
65.26    718
65.28    710
65.3     668
65.32    675
65.34    644
65.36    681
65.38    662
65.4     649
65.42    644
65.44    613
65.46    563
65.48    549
65.5     481
65.52    485
65.54    468
65.56    490
65.58    550
65.6     560
65.62    593
65.64    552
65.66    533
65.68    496
65.7     428
65.72    394
65.74    393
65.76    393
65.78    411
65.8     392
65.82    425
65.84    428
65.86    465
65.88    491
65.9     507
65.92    498
65.94    483
65.96    456
65.98    471
66.0     510
66.02    535
66.04    547
66.06    581
66.08    592
66.1     561
66.12    522
66.14    472
66.16    476
66.18    485
66.2     470
66.22    454
66.24    471
66.26    421
66.28    395
66.3     414
66.32    415
66.34    434
66.36    465
66.38    486
66.4     508
66.42    518
66.44    544
66.46    518
66.48    523
66.5     543
66.52    509
66.54    547
66.56    544
66.58    496
66.6     453
66.62    422
66.64    418
66.66    443
66.68    431
66.7     422
66.72    425
66.74    450
66.76    455
66.78    459
66.8     441
66.82    456
66.84    438
66.86    468
66.88    490
66.9     428
66.92    450
66.94    415
66.96    413
66.98    394
67.0     340
67.02    347
67.04    374
67.06    378
67.08    417
67.1     411
67.12    486
67.14    463
67.16    487
67.18    479
67.2     437
67.22    445
67.24    468
67.26    433
67.28    379
67.3     391
67.32    413
67.34    422
67.36    459
67.38    396
67.4     348
67.42    326
67.44    324
67.46    436
67.48    437
67.5     528
67.52    570
67.54    533
67.56    504
67.58    430
67.6     409
67.62    385
67.64    413
67.66    533
67.68    529
67.7     566
67.72    580
67.74    579
67.76    592
67.78    545
67.8     508
67.82    474
67.84    486
67.86    452
67.88    453
67.9     438
67.92    449
67.94    478
67.96    439
67.98    456
68.0     482
68.02    459
68.04    438
68.06    418
68.08    422
68.1     410
68.12    424
68.14    483
68.16    494
68.18    555
68.2     551
68.22    565
68.24    547
68.26    583
68.28    592
68.3     627
68.32    632
68.34    665
68.36    698
68.38    726
68.4     708
68.42    763
68.44    756
68.46    769
68.48    768
68.5     763
68.52    772
68.54    804
68.56    815
68.58    851
68.6     875
68.62    904
68.64    873
68.66    920
68.68    942
68.7     964
68.72    1099
68.74    1202
68.76    1280
68.78    1475
68.8     1645
68.82    1826
68.84    1978
68.86    2214
68.88    2471
68.9     2739
68.92    3006
68.94    3174
68.96    3298
68.98    3386
69.0     3326
69.02    3200
69.04    3011
69.06    2787
69.08    2587
69.1     2382
69.12    2164
69.14    1983
69.16    1849
69.18    1695
69.2     1545
69.22    1419
69.24    1301
69.26    1171
69.28    1062
69.3     989
69.32    881
69.34    812
69.36    742
69.38    686
69.4     664
69.42    650
69.44    610
69.46    557
69.48    562
69.5     564
69.52    571
69.54    588
69.56    585
69.58    586
69.6     587
69.62    595
69.64    570
69.66    600
69.68    656
69.7     700
69.72    691
69.74    664
69.76    637
69.78    577
69.8     586
69.82    545
69.84    506
69.86    508
69.88    508
69.9     463
69.92    432
69.94    409
69.96    429
69.98    447
70.0     517
70.02    552
70.04    619
70.06    662
70.08    706
70.1     684
70.12    743
70.14    764
70.16    792
70.18    800
70.2     779
70.22    774
70.24    717
70.26    675
70.28    703
70.3     704
70.32    753
70.34    816
70.36    869
70.38    909
70.4     937
70.42    992
70.44    1084
70.46    1226
70.48    1374
70.5     1506
70.52    1668
70.54    1768
70.56    1793
70.58    1810
70.6     1844
70.62    1831
70.64    1767
70.66    1649
70.68    1499
70.7     1404
70.72    1257
70.74    1099
70.76    962
70.78    921
70.8     849
70.82    766
70.84    712
70.86    681
70.88    689
70.9     650
70.92    652
70.94    747
70.96    769
70.98    727
71.0     634
71.02    608
71.04    554
71.06    482
71.08    490
71.1     495
71.12    566
71.14    577
71.16    533
71.18    539
71.2     545
71.22    540
71.24    536
71.26    525
71.28    585
71.3     649
71.32    630
71.34    512
71.36    540
71.38    503
71.4     462
71.42    480
71.44    490
71.46    441
71.48    424
71.5     409
71.52    433
71.54    465
71.56    490
71.58    492
71.6     575
71.62    599
71.64    574
71.66    579
71.68    578
71.7     623
71.72    632
71.74    630
71.76    563
71.78    572
71.8     521
71.82    390
71.84    363
71.86    435
71.88    513
71.9     553
71.92    568
71.94    650
71.96    674
71.98    715
72.0     704
72.02    691
72.04    744
72.06    762
72.08    789
72.1     746
72.12    770
72.14    785
72.16    731
72.18    731
72.2     792
72.22    813
72.24    885
72.26    942
72.28    1049
72.3     1171
72.32    1292
72.34    1455
72.36    1611
72.38    1819
72.4     2099
72.42    2300
72.44    2624
72.46    2998
72.48    3348
72.5     3637
72.52    3909
72.54    4113
72.56    4177
72.58    4130
72.6     3969
72.62    3798
72.64    3603
72.66    3369
72.68    3035
72.7     2725
72.72    2458
72.74    2169
72.76    1923
72.78    1693
72.8     1544
72.82    1464
72.84    1340
72.86    1206
72.88    1102
72.9     1052
72.92    976
72.94    929
72.96    920
72.98    905
73.0     945
73.02    885
73.04    788
73.06    829
73.08    807
73.1     800
73.12    771
73.14    687
73.16    625
73.18    568
73.2     555
73.22    510
73.24    490
73.26    586
73.28    595
73.3     666
73.32    727
73.34    749
73.36    825
73.38    966
73.4     1027
73.42    1129
73.44    1162
73.46    1191
73.48    1231
73.5     1173
73.52    1134
73.54    1019
73.56    957
73.58    901
73.6     751
73.62    766
73.64    699
73.66    699
73.68    730
73.7     729
73.72    755
73.74    728
73.76    707
73.78    657
73.8     692
73.82    769
73.84    711
73.86    769
73.88    797
73.9     862
73.92    787
73.94    759
73.96    718
73.98    669
74.0     724
74.02    704
74.04    712
74.06    857
74.08    930
74.1     1013
74.12    1025
74.14    1141
74.16    1276
74.18    1350
74.2     1538
74.22    1627
74.24    1763
74.26    1926
74.28    1976
74.3     2014
74.32    2019
74.34    2006
74.36    2023
74.38    1914
74.4     1868
74.42    1724
74.44    1663
74.46    1616
74.48    1495
74.5     1379
74.52    1304
74.54    1262
74.56    1275
74.58    1195
74.6     1200
74.62    1221
74.64    1264
74.66    1248
74.68    1209
74.7     1211
74.72    1328
74.74    1455
74.76    1617
74.78    1693
74.8     1840
74.82    1930
74.84    1985
74.86    2023
74.88    2065
74.9     2058
74.92    2003
74.94    1874
74.96    1701
74.98    1480
75.0     1336
75.02    1196
75.04    1154
75.06    1090
75.08    1063
75.1     1009
75.12    916
75.14    899
75.16    799
75.18    711
75.2     692
75.22    618
75.24    589
75.26    550
75.28    572
75.3     585
75.32    621
75.34    687
75.36    596
75.38    571
75.4     596
75.42    526
75.44    553
75.46    615
75.48    590
75.5     588
75.52    547
75.54    504
75.56    463
75.58    513
75.6     507
75.62    481
75.64    540
75.66    512
75.68    403
75.7     378
75.72    334
75.74    407
75.76    451
75.78    519
75.8     477
75.82    523
75.84    607
75.86    529
75.88    497
75.9     536
75.92    628
75.94    669
75.96    622
75.98    568
76.0     473
76.02    504
76.04    508
76.06    478
76.08    515
76.1     539
76.12    543
76.14    443
76.16    310
76.18    251
76.2     211
76.22    265
76.24    301
76.26    388
76.28    456
76.3     491
76.32    464
76.34    477
76.36    487
76.38    622
76.4     659
76.42    628
76.44    562
76.46    546
76.48    525
76.5     440
76.52    335
76.54    376
76.56    371
76.58    516
76.6     521
76.62    490
76.64    528
76.66    595
76.68    628
76.7     564
76.72    537
76.74    536
76.76    493
76.78    540
76.8     476
76.82    462
76.84    499
76.86    535
76.88    530
76.9     505
76.92    556
76.94    571
76.96    594
76.98    576
77.0     530
77.02    576
77.04    563
77.06    591
77.08    535
77.1     532
77.12    611
77.14    667
77.16    701
77.18    722
77.2     787
77.22    893
77.24    873
77.26    972
77.28    1021
77.3     1121
77.32    1279
77.34    1425
77.36    1600
77.38    1863
77.4     2132
77.42    2393
77.44    2641
77.46    2949
77.48    3203
77.5     3511
77.52    3781
77.54    4029
77.56    4190
77.58    4308
77.6     4370
77.62    4344
77.64    4206
77.66    3974
77.68    3704
77.7     3433
77.72    3113
77.74    2805
77.76    2500
77.78    2307
77.8     2221
77.82    2150
77.84    2053
77.86    1961
77.88    1920
77.9     1769
77.92    1599
77.94    1438
77.96    1306
77.98    1193
78.0     1139
78.02    1075
78.04    1011
78.06    931
78.08    875
78.1     790
78.12    703
78.14    645
78.16    578
78.18    535
78.2     574
78.22    606
78.24    597
78.26    547
78.28    538
78.3     561
78.32    510
78.34    491
78.36    532
78.38    574
78.4     651
78.42    632
78.44    589
78.46    538
78.48    572
78.5     532
78.52    473
78.54    449
78.56    478
78.58    442
78.6     407
78.62    355
78.64    347
78.66    376
78.68    502
78.7     479
78.72    442
78.74    436
78.76    386
78.78    348
78.8     303
78.82    358
78.84    388
78.86    433
78.88    527
78.9     518
78.92    567
78.94    642
78.96    660
78.98    670
79.0     604
79.02    614
79.04    559
79.06    470
79.08    420
79.1     395
79.12    357
79.14    349
79.16    362
79.18    338
79.2     307
79.22    358
79.24    371
79.26    387
79.28    404
79.3     451
79.32    436
79.34    482
79.36    501
79.38    540
79.4     544
79.42    564
79.44    600
79.46    599
79.48    567
79.5     530
79.52    485
79.54    440
79.56    394
79.58    384
79.6     367
79.62    342
79.64    411
79.66    388
79.68    329
79.7     326
79.72    282
79.74    306
79.76    325
79.78    445
79.8     537
79.82    584
79.84    678
79.86    678
79.88    628
79.9     592
79.92    562
79.94    599
79.96    543
79.98    536
80.0     546
80.02    532
80.04    531
80.06    543
80.08    549
80.1     528
80.12    613
80.14    625
80.16    609
80.18    637
80.2     679
80.22    683
80.24    680
80.26    708
80.28    678
80.3     578
80.32    592
80.34    531
80.36    529
80.38    555
80.4     555
80.42    578
80.44    581
80.46    619
80.48    551
80.5     482
80.52    504
80.54    502
80.56    438
80.58    440
80.6     421
80.62    410
80.64    406
80.66    372
80.68    314
80.7     281
80.72    297
80.74    363
80.76    334
80.78    325
80.8     363
80.82    365
80.84    393
80.86    374
80.88    353
80.9     309
80.92    331
80.94    381
80.96    410
80.98    392
81.0     425
81.02    446
81.04    514
81.06    523
81.08    463
81.1     426
81.12    442
81.14    468
81.16    492
81.18    475
81.2     473
81.22    468
81.24    459
81.26    423
81.28    333
81.3     380
81.32    406
81.34    453
81.36    509
81.38    543
81.4     554
81.42    503
81.44    468
81.46    409
81.48    391
81.5     449
81.52    434
81.54    431
81.56    388
81.58    386
81.6     372
81.62    311
81.64    281
81.66    275
81.68    313
81.7     388
81.72    414
81.74    394
81.76    353
81.78    421
81.8     443
81.82    417
81.84    429
81.86    507
81.88    508
81.9     543
81.92    487
81.94    407
81.96    352
81.98    367
82.0     352
82.02    346
82.04    318
82.06    347
82.08    300
82.1     251
82.12    219
82.14    191
82.16    221
82.18    301
82.2     353
82.22    372
82.24    346
82.26    375
82.28    378
82.3     360
82.32    338
82.34    360
82.36    426
82.38    463
82.4     435
82.42    381
82.44    310
82.46    308
82.48    334
82.5     375
82.52    374
82.54    443
82.56    534
82.58    508
82.6     495
82.62    445
82.64    386
82.66    389
82.68    439
82.7     447
82.72    516
82.74    517
82.76    543
82.78    504
82.8     486
82.82    439
82.84    407
82.86    410
82.88    471
82.9     472
82.92    556
82.94    553
82.96    546
82.98    531
83.0     518
83.02    497
83.04    485
83.06    497
83.08    488
83.1     430
83.12    357
83.14    301
83.16    272
83.18    307
83.2     347
83.22    344
83.24    418
83.26    436
83.28    392
83.3     298
83.32    259
83.34    246
83.36    341
83.38    416
83.4     487
83.42    557
83.44    598
83.46    575
83.48    560
83.5     477
83.52    449
83.54    429
83.56    427
83.58    397
83.6     410
83.62    353
83.64    360
83.66    346
83.68    313
83.7     234
83.72    207
83.74    254
83.76    282
83.78    349
83.8     386
83.82    371
83.84    456
83.86    435
83.88    364
83.9     286
83.92    295
83.94    325
83.96    391
83.98    424
84.0     400
84.02    431
84.04    481
84.06    486
84.08    473
84.1     467
84.12    490
84.14    530
84.16    521
84.18    441
84.2     365
84.22    403
84.24    379
84.26    368
84.28    408
84.3     445
84.32    525
84.34    588
84.36    575
84.38    514
84.4     424
84.42    441
84.44    431
84.46    425
84.48    444
84.5     493
84.52    600
84.54    578
84.56    548
84.58    518
84.6     476
84.62    499
84.64    493
84.66    461
84.68    417
84.7     407
84.72    441
84.74    402
84.76    434
84.78    521
84.8     625
84.82    679
84.84    714
84.86    682
84.88    597
84.9     569
84.92    566
84.94    550
84.96    573
84.98    537
85.0     525
85.02    486
85.04    408
85.06    294
85.08    262
85.1     295
85.12    365
85.14    413
85.16    380
85.18    337
85.2     336
85.22    336
85.24    340
85.26    387
85.28    420
85.3     470
85.32    522
85.34    473
85.36    396
85.38    430
85.4     385
85.42    436
85.44    513
85.46    535
85.48    540
85.5     490
85.52    389
85.54    298
85.56    289
85.58    273
85.6     236
85.62    291
85.64    349
85.66    395
85.68    471
85.7     481
85.72    444
85.74    453
85.76    501
85.78    505
85.8     569
85.82    553
85.84    593
85.86    593
85.88    590
85.9     565
85.92    504
85.94    439
85.96    404
85.98    422
86.0     419
86.02    378
86.04    410
86.06    357
86.08    339
86.1     391
86.12    375
86.14    388
86.16    427
86.18    475
86.2     519
86.22    614
86.24    649
86.26    686
86.28    765
86.3     862
86.32    885
86.34    964
86.36    1034
86.38    1042
86.4     1080
86.42    1048
86.44    984
86.46    993
86.48    967
86.5     974
86.52    993
86.54    931
86.56    951
86.58    929
86.6     852
86.62    763
86.64    703
86.66    640
86.68    624
86.7     626
86.72    628
86.74    583
86.76    606
86.78    591
86.8     577
86.82    558
86.84    499
86.86    461
86.88    445
86.9     472
86.92    544
86.94    518
86.96    456
86.98    408
87.0     448
87.02    452
87.04    446
87.06    448
87.08    441
87.1     519
87.12    539
87.14    560
87.16    518
87.18    458
87.2     482
87.22    529
87.24    551
87.26    593
87.28    609
87.3     606
87.32    581
87.34    565
87.36    495
87.38    395
87.4     341
87.42    335
87.44    335
87.46    425
87.48    427
87.5     386
87.52    339
87.54    249
87.56    271
87.58    296
87.6     292
87.62    284
87.64    307
87.66    338
87.68    349
87.7     350
87.72    274
87.74    234
87.76    336
87.78    457
87.8     520
87.82    527
87.84    580
87.86    538
87.88    571
87.9     546
87.92    465
87.94    447
87.96    484
87.98    507
88.0     579
88.02    562
88.04    544
88.06    488
88.08    419
88.1     385
88.12    393
88.14    397
88.16    397
88.18    416
88.2     464
88.22    440
88.24    374
88.26    382
88.28    312
88.3     305
88.32    334
88.34    377
88.36    437
88.38    447
88.4     454
88.42    453
88.44    425
88.46    467
88.48    469
88.5     426
88.52    460
88.54    494
88.56    561
88.58    491
88.6     490
88.62    462
88.64    409
88.66    429
88.68    435
88.7     409
88.72    430
88.74    449
88.76    457
88.78    480
88.8     492
88.82    421
88.84    342
88.86    369
88.88    318
88.9     315
88.92    309
88.94    353
88.96    337
88.98    415
89.0     412
89.02    411
89.04    445
89.06    446
89.08    388
89.1     454
89.12    530
89.14    570
89.16    567
89.18    583
89.2     608
89.22    605
89.24    625
89.26    555
89.28    556
89.3     534
89.32    493
89.34    423
89.36    361
89.38    292
89.4     287
89.42    296
89.44    363
89.46    382
89.48    423
89.5     371
89.52    334
89.54    312
89.56    279
89.58    208
89.6     270
89.62    336
89.64    385
89.66    474
89.68    493
89.7     509
89.72    546
89.74    524
89.76    477
89.78    444
89.8     532
89.82    561
89.84    588
89.86    662
89.88    647
89.9     608
89.92    585
89.94    501
89.96    543
89.98    535
90.0     519
