?
5.0      828
5.02     828
5.04     1075
5.06     983
5.08     984
5.1      983
5.12     1003
5.14     981
5.16     992
5.18     1003
5.2      1001
5.22     1006
5.24     1010
5.26     996
5.28     1004
5.3      1031
5.32     1072
5.34     1040
5.36     1040
5.38     1033
5.4      1035
5.42     1028
5.44     1006
5.46     953
5.48     940
5.5      923
5.52     925
5.54     921
5.56     953
5.58     994
5.6      1025
5.62     1048
5.64     1031
5.66     1054
5.68     1033
5.7      973
5.72     988
5.74     985
5.76     1003
5.78     989
5.8      959
5.82     953
5.84     941
5.86     990
5.88     985
5.9      958
5.92     1019
5.94     1022
5.96     1019
5.98     996
6.0      987
6.02     963
6.04     983
6.06     972
6.08     983
6.1      969
6.12     988
6.14     985
6.16     962
6.18     944
6.2      947
6.22     923
6.24     940
6.26     945
6.28     955
6.3      960
6.32     984
6.34     989
6.36     988
6.38     992
6.4      1025
6.42     999
6.44     986
6.46     974
6.48     949
6.5      952
6.52     912
6.54     874
6.56     879
6.58     921
6.6      929
6.62     918
6.64     904
6.66     936
6.68     937
6.7      960
6.72     874
6.74     900
6.76     902
6.78     937
6.8      918
6.82     924
6.84     910
6.86     939
6.88     892
6.9      904
6.92     840
6.94     889
6.96     875
6.98     900
7.0      949
7.02     904
7.04     937
7.06     914
7.08     918
7.1      904
7.12     924
7.14     945
7.16     981
7.18     998
7.2      1004
7.22     970
7.24     987
7.26     946
7.28     973
7.3      927
7.32     909
7.34     894
7.36     916
7.38     941
7.4      921
7.42     937
7.44     964
7.46     928
7.48     935
7.5      907
7.52     832
7.54     816
7.56     801
7.58     807
7.6      754
7.62     801
7.64     847
7.66     848
7.68     900
7.7      937
7.72     922
7.74     939
7.76     955
7.78     946
7.8      921
7.82     919
7.84     911
7.86     892
7.88     891
7.9      905
7.92     897
7.94     902
7.96     932
7.98     912
8.0      912
8.02     867
8.04     892
8.06     900
8.08     940
8.1      972
8.12     960
8.14     955
8.16     957
8.18     945
8.2      919
8.22     852
8.24     865
8.26     895
8.28     894
8.3      924
8.32     855
8.34     892
8.36     916
8.38     943
8.4      906
8.42     892
8.44     893
8.46     909
8.48     834
8.5      895
8.52     819
8.54     864
8.56     913
8.58     922
8.6      964
8.62     1008
8.64     972
8.66     983
8.68     910
8.7      978
8.72     865
8.74     854
8.76     881
8.78     857
8.8      893
8.82     877
8.84     859
8.86     881
8.88     858
8.9      900
8.92     858
8.94     911
8.96     897
8.98     910
9.0      928
9.02     926
9.04     927
9.06     917
9.08     876
9.1      905
9.12     899
9.14     891
9.16     861
9.18     871
9.2      836
9.22     807
9.24     792
9.26     769
9.28     716
9.3      784
9.32     818
9.34     839
9.36     882
9.38     899
9.4      868
9.42     830
9.44     778
9.46     753
9.48     705
9.5      706
9.52     722
9.54     735
9.56     773
9.58     799
9.6      796
9.62     770
9.64     739
9.66     748
9.68     688
9.7      680
9.72     703
9.74     685
9.76     704
9.78     681
9.8      687
9.82     676
9.84     615
9.86     596
9.88     587
9.9      639
9.92     647
9.94     683
9.96     744
9.98     734
10.0     771
10.02    755
10.04    704
10.06    710
10.08    673
10.1     730
10.12    675
10.14    729
10.16    737
10.18    707
10.2     652
10.22    646
10.24    631
10.26    626
10.28    576
10.3     644
10.32    644
10.34    740
10.36    707
10.38    710
10.4     684
10.42    684
10.44    681
10.46    610
10.48    526
10.5     546
10.52    608
10.54    642
10.56    600
10.58    684
10.6     664
10.62    675
10.64    679
10.66    630
10.68    573
10.7     581
10.72    581
10.74    575
10.76    559
10.78    604
10.8     597
10.82    680
10.84    645
10.86    655
10.88    655
10.9     611
10.92    585
10.94    630
10.96    639
10.98    645
11.0     675
11.02    711
11.04    665
11.06    712
11.08    727
11.1     655
11.12    667
11.14    690
11.16    674
11.18    638
11.2     638
11.22    629
11.24    595
11.26    696
11.28    662
11.3     656
11.32    727
11.34    731
11.36    718
11.38    677
11.4     654
11.42    668
11.44    623
11.46    629
11.48    567
11.5     640
11.52    653
11.54    622
11.56    650
11.58    671
11.6     687
11.62    689
11.64    637
11.66    629
11.68    616
11.7     603
11.72    600
11.74    627
11.76    694
11.78    690
11.8     667
11.82    566
11.84    562
11.86    596
11.88    547
11.9     580
11.92    622
11.94    664
11.96    700
11.98    698
12.0     707
12.02    666
12.04    701
12.06    765
12.08    769
12.1     822
12.12    743
12.14    758
12.16    735
12.18    724
12.2     693
12.22    690
12.24    686
12.26    767
12.28    789
12.3     769
12.32    780
12.34    780
12.36    742
12.38    701
12.4     650
12.42    672
12.44    696
12.46    735
12.48    750
12.5     742
12.52    786
12.54    760
12.56    754
12.58    731
12.6     682
12.62    700
12.64    725
12.66    682
12.68    671
12.7     684
12.72    719
12.74    711
12.76    733
12.78    700
12.8     655
12.82    712
12.84    676
12.86    652
12.88    716
12.9     753
12.92    775
12.94    804
12.96    853
12.98    789
13.0     766
13.02    832
13.04    746
13.06    743
13.08    799
13.1     739
13.12    730
13.14    822
13.16    778
13.18    737
13.2     766
13.22    811
13.24    733
13.26    735
13.28    800
13.3     782
13.32    761
13.34    797
13.36    767
13.38    850
13.4     853
13.42    816
13.44    801
13.46    774
13.48    792
13.5     753
13.52    707
13.54    717
13.56    776
13.58    807
13.6     806
13.62    787
13.64    792
13.66    784
13.68    839
13.7     863
13.72    895
13.74    933
13.76    924
13.78    928
13.8     903
13.82    855
13.84    842
13.86    870
13.88    899
13.9     907
13.92    938
13.94    942
13.96    867
13.98    906
14.0     904
14.02    941
14.04    964
14.06    976
14.08    968
14.1     954
14.12    936
14.14    960
14.16    926
14.18    919
14.2     949
14.22    993
14.24    1001
14.26    1032
14.28    1052
14.3     1023
14.32    989
14.34    1036
14.36    972
14.38    898
14.4     894
14.42    908
14.44    923
14.46    939
14.48    960
14.5     963
14.52    964
14.54    970
14.56    971
14.58    987
14.6     982
14.62    985
14.64    1045
14.66    1061
14.68    1064
14.7     1095
14.72    1086
14.74    1031
14.76    1065
14.78    1064
14.8     1051
14.82    1104
14.84    1189
14.86    1220
14.88    1190
14.9     1193
14.92    1181
14.94    1102
14.96    1105
14.98    1142
15.0     1150
15.02    1150
15.04    1157
15.06    1190
15.08    1207
15.1     1179
15.12    1108
15.14    1104
15.16    1145
15.18    1136
15.2     1099
15.22    1118
15.24    1166
15.26    1191
15.28    1149
15.3     1097
15.32    1085
15.34    1158
15.36    1156
15.38    1103
15.4     1099
15.42    1171
15.44    1181
15.46    1165
15.48    1124
15.5     1143
15.52    1160
15.54    1170
15.56    1157
15.58    1096
15.6     1109
15.62    1206
15.64    1163
15.66    1139
15.68    1150
15.7     1190
15.72    1212
15.74    1182
15.76    1228
15.78    1263
15.8     1314
15.82    1374
15.84    1296
15.86    1279
15.88    1306
15.9     1407
15.92    1498
15.94    1550
15.96    1718
15.98    1893
16.0     1913
16.02    1977
16.04    2004
16.06    2031
16.08    2091
16.1     2232
16.12    2355
16.14    2512
16.16    2771
16.18    3116
16.2     3409
16.22    3756
16.24    4197
16.26    4738
16.28    5424
16.3     6275
16.32    7199
16.34    8380
16.36    9992
16.38    11945
16.4     14305
16.42    17269
16.44    20917
16.46    25185
16.48    29959
16.5     34750
16.52    38803
16.54    41363
16.56    42014
16.58    40275
16.6     36442
16.62    31169
16.64    25105
16.66    19207
16.68    14220
16.7     10424
16.72    7797
16.74    5988
16.76    4898
16.78    4117
16.8     3520
16.82    3072
16.84    2731
16.86    2548
16.88    2384
16.9     2263
16.92    2152
16.94    2043
16.96    2001
16.98    1883
17.0     1773
17.02    1702
17.04    1710
17.06    1689
17.08    1634
17.1     1605
17.12    1526
17.14    1507
17.16    1525
17.18    1423
17.2     1390
17.22    1408
17.24    1441
17.26    1334
17.28    1284
17.3     1274
17.32    1301
17.34    1280
17.36    1224
17.38    1145
17.4     1175
17.42    1256
17.44    1295
17.46    1237
17.48    1240
17.5     1261
17.52    1265
17.54    1197
17.56    1171
17.58    1194
17.6     1191
17.62    1179
17.64    1148
17.66    1118
17.68    1063
17.7     997
17.72    926
17.74    957
17.76    986
17.78    1028
17.8     1040
17.82    1019
17.84    983
17.86    941
17.88    901
17.9     878
17.92    825
17.94    860
17.96    939
17.98    961
18.0     995
18.02    996
18.04    1007
18.06    1017
18.08    1046
18.1     1071
18.12    1040
18.14    1038
18.16    998
18.18    909
18.2     871
18.22    851
18.24    838
18.26    867
18.28    899
18.3     935
18.32    953
18.34    980
18.36    979
18.38    981
18.4     963
18.42    942
18.44    961
18.46    950
18.48    849
18.5     816
18.52    835
18.54    837
18.56    815
18.58    805
18.6     794
18.62    831
18.64    931
18.66    965
18.68    933
18.7     894
18.72    915
18.74    877
18.76    833
18.78    776
18.8     774
18.82    817
18.84    899
18.86    980
18.88    919
18.9     813
18.92    839
18.94    842
18.96    800
18.98    717
19.0     732
19.02    762
19.04    801
19.06    814
19.08    730
19.1     685
19.12    672
19.14    653
19.16    619
19.18    640
19.2     701
19.22    742
19.24    750
19.26    773
19.28    758
19.3     722
19.32    633
19.34    659
19.36    689
19.38    751
19.4     708
19.42    695
19.44    676
19.46    698
19.48    708
19.5     688
19.52    658
19.54    726
19.56    675
19.58    660
19.6     602
19.62    593
19.64    548
19.66    573
19.68    621
19.7     635
19.72    626
19.74    642
19.76    700
19.78    758
19.8     714
19.82    636
19.84    609
19.86    668
19.88    643
19.9     607
19.92    518
19.94    564
19.96    619
19.98    614
20.0     587
20.02    605
20.04    664
20.06    644
20.08    541
20.1     529
20.12    501
20.14    527
20.16    507
20.18    568
20.2     612
20.22    660
20.24    636
20.26    634
20.28    652
20.3     660
20.32    639
20.34    603
20.36    595
20.38    586
20.4     622
20.42    599
20.44    494
20.46    535
20.48    538
20.5     497
20.52    440
20.54    467
20.56    561
20.58    646
20.6     682
20.62    614
20.64    546
20.66    537
20.68    523
20.7     497
20.72    461
20.74    517
20.76    578
20.78    551
20.8     472
20.82    449
20.84    448
20.86    458
20.88    500
20.9     545
20.92    582
20.94    595
20.96    592
20.98    564
21.0     573
21.02    559
21.04    514
21.06    498
21.08    529
21.1     531
21.12    526
21.14    498
21.16    509
21.18    484
21.2     502
21.22    480
21.24    508
21.26    509
21.28    554
21.3     477
21.32    430
21.34    398
21.36    393
21.38    381
21.4     496
21.42    537
21.44    630
21.46    627
21.48    634
21.5     519
21.52    493
21.54    428
21.56    381
21.58    353
21.6     339
21.62    308
21.64    346
21.66    377
21.68    457
21.7     475
21.72    529
21.74    498
21.76    486
21.78    425
21.8     392
21.82    386
21.84    405
21.86    396
21.88    447
21.9     453
21.92    470
21.94    442
21.96    448
21.98    439
22.0     474
22.02    469
22.04    470
22.06    446
22.08    447
22.1     403
22.12    382
22.14    361
22.16    421
22.18    445
22.2     432
22.22    423
22.24    448
22.26    447
22.28    450
22.3     424
22.32    421
22.34    400
22.36    452
22.38    446
22.4     416
22.42    393
22.44    411
22.46    419
22.48    468
22.5     492
22.52    509
22.54    487
22.56    503
22.58    513
22.6     450
22.62    378
22.64    351
22.66    395
22.68    421
22.7     408
22.72    397
22.74    394
22.76    371
22.78    418
22.8     356
22.82    381
22.84    370
22.86    422
22.88    332
22.9     268
22.92    301
22.94    356
22.96    406
22.98    446
23.0     399
23.02    395
23.04    397
23.06    522
23.08    509
23.1     481
23.12    455
23.14    483
23.16    443
23.18    369
23.2     315
23.22    255
23.24    327
23.26    396
23.28    347
23.3     296
23.32    249
23.34    298
23.36    251
23.38    297
23.4     309
23.42    322
23.44    318
23.46    317
23.48    381
23.5     476
23.52    476
23.54    440
23.56    379
23.58    394
23.6     391
23.62    409
23.64    326
23.66    347
23.68    347
23.7     372
23.72    342
23.74    315
23.76    292
23.78    268
23.8     268
23.82    312
23.84    313
23.86    307
23.88    292
23.9     327
23.92    369
23.94    385
23.96    306
23.98    238
24.0     246
24.02    346
24.04    391
24.06    392
24.08    365
24.1     353
24.12    370
24.14    353
24.16    343
24.18    340
24.2     352
24.22    389
24.24    376
24.26    409
24.28    388
24.3     415
24.32    356
24.34    381
24.36    364
24.38    344
24.4     297
24.42    327
24.44    314
24.46    363
24.48    367
24.5     361
24.52    297
24.54    342
24.56    314
24.58    336
24.6     327
24.62    387
24.64    386
24.66    374
24.68    395
24.7     367
24.72    394
24.74    471
24.76    478
24.78    453
24.8     376
24.82    358
24.84    306
24.86    276
24.88    259
24.9     217
24.92    300
24.94    364
24.96    367
24.98    356
25.0     309
25.02    361
25.04    361
25.06    325
25.08    315
25.1     355
25.12    453
25.14    494
25.16    497
25.18    484
25.2     428
25.22    418
25.24    343
25.26    219
25.28    204
25.3     243
25.32    303
25.34    325
25.36    355
25.38    389
25.4     361
25.42    381
25.44    335
25.46    236
25.48    215
25.5     213
25.52    253
25.54    269
25.56    357
25.58    370
25.6     390
25.62    384
25.64    346
25.66    284
25.68    298
25.7     245
25.72    287
25.74    306
25.76    322
25.78    344
25.8     367
25.82    337
25.84    336
25.86    293
25.88    320
25.9     281
25.92    334
25.94    326
25.96    352
25.98    391
26.0     324
26.02    305
26.04    280
26.06    267
26.08    314
26.1     302
26.12    296
26.14    289
26.16    324
26.18    346
26.2     349
26.22    413
26.24    440
26.26    417
26.28    399
26.3     354
26.32    304
26.34    242
26.36    224
26.38    224
26.4     233
26.42    283
26.44    244
26.46    210
26.48    232
26.5     300
26.52    297
26.54    286
26.56    281
26.58    322
26.6     363
26.62    376
26.64    344
26.66    306
26.68    322
26.7     366
26.72    392
26.74    355
26.76    302
26.78    314
26.8     257
26.82    241
26.84    287
26.86    272
26.88    312
26.9     353
26.92    418
26.94    392
26.96    385
26.98    336
27.0     267
27.02    272
27.04    284
27.06    254
27.08    333
27.1     363
27.12    434
27.14    470
27.16    422
27.18    351
27.2     284
27.22    225
27.24    246
27.26    246
27.28    338
27.3     289
27.32    294
27.34    233
27.36    160
27.38    175
27.4     176
27.42    255
27.44    393
27.46    441
27.48    440
27.5     375
27.52    321
27.54    300
27.56    278
27.58    320
27.6     300
27.62    408
27.64    446
27.66    410
27.68    329
27.7     255
27.72    204
27.74    185
27.76    144
27.78    150
27.8     138
27.82    197
27.84    221
27.86    231
27.88    231
27.9     245
27.92    255
27.94    237
27.96    224
27.98    190
28.0     210
28.02    256
28.04    309
28.06    377
28.08    396
28.1     442
28.12    417
28.14    353
28.16    306
28.18    266
28.2     255
28.22    187
28.24    152
28.26    189
28.28    218
28.3     255
28.32    286
28.34    279
28.36    344
28.38    328
28.4     295
28.42    312
28.44    301
28.46    322
28.48    329
28.5     303
28.52    323
28.54    277
28.56    320
28.58    287
28.6     293
28.62    381
28.64    335
28.66    352
28.68    314
28.7     290
28.72    328
28.74    295
28.76    266
28.78    225
28.8     259
28.82    303
28.84    290
28.86    279
28.88    182
28.9     202
28.92    235
28.94    187
28.96    200
28.98    220
29.0     338
29.02    376
29.04    367
29.06    333
29.08    248
29.1     256
29.12    231
29.14    245
29.16    270
29.18    271
29.2     341
29.22    364
29.24    388
29.26    405
29.28    429
29.3     420
29.32    380
29.34    317
29.36    261
29.38    276
29.4     273
29.42    300
29.44    333
29.46    347
29.48    379
29.5     352
29.52    332
29.54    270
29.56    288
29.58    290
29.6     260
29.62    303
29.64    299
29.66    270
29.68    273
29.7     290
29.72    320
29.74    332
29.76    350
29.78    319
29.8     320
29.82    378
29.84    323
29.86    306
29.88    255
29.9     207
29.92    199
29.94    154
29.96    158
29.98    192
30.0     294
30.02    433
30.04    452
30.06    480
30.08    386
30.1     303
30.12    308
30.14    262
30.16    294
30.18    311
30.2     363
30.22    386
30.24    349
30.26    328
30.28    259
30.3     253
30.32    355
30.34    385
30.36    427
30.38    425
30.4     383
30.42    329
30.44    252
30.46    241
30.48    229
30.5     264
30.52    308
30.54    307
30.56    320
30.58    319
30.6     312
30.62    302
30.64    244
30.66    269
30.68    316
30.7     341
30.72    338
30.74    316
30.76    283
30.78    269
30.8     286
30.82    267
30.84    248
30.86    291
30.88    287
30.9     299
30.92    293
30.94    263
30.96    281
30.98    300
31.0     288
31.02    275
31.04    241
31.06    256
31.08    241
31.1     296
31.12    288
31.14    297
31.16    371
31.18    351
31.2     294
31.22    298
31.24    264
31.26    239
31.28    268
31.3     221
31.32    240
31.34    235
31.36    240
31.38    275
31.4     332
31.42    364
31.44    396
31.46    412
31.48    368
31.5     286
31.52    243
31.54    156
31.56    147
31.58    186
31.6     273
31.62    363
31.64    462
31.66    523
31.68    471
31.7     441
31.72    364
31.74    350
31.76    316
31.78    286
31.8     354
31.82    354
31.84    313
31.86    304
31.88    262
31.9     306
31.92    344
31.94    398
31.96    383
31.98    383
32.0     360
32.02    311
32.04    383
32.06    404
32.08    441
32.1     553
32.12    530
32.14    530
32.16    473
32.18    438
32.2     427
32.22    426
32.24    573
32.26    604
32.28    628
32.3     652
32.32    569
32.34    530
32.36    446
32.38    375
32.4     358
32.42    341
32.44    378
32.46    385
32.48    428
32.5     444
32.52    405
32.54    411
32.56    377
32.58    356
32.6     361
32.62    363
32.64    351
32.66    409
32.68    463
32.7     494
32.72    523
32.74    558
32.76    565
32.78    529
32.8     466
32.82    447
32.84    432
32.86    458
32.88    445
32.9     475
32.92    503
32.94    518
32.96    532
32.98    534
33.0     542
33.02    531
33.04    566
33.06    642
33.08    664
33.1     666
33.12    682
33.14    676
33.16    704
33.18    773
33.2     835
33.22    855
33.24    997
33.26    1137
33.28    1291
33.3     1513
33.32    1791
33.34    2133
33.36    2701
33.38    3230
33.4     3904
33.42    4543
33.44    5262
33.46    6006
33.48    6725
33.5     7413
33.52    7933
33.54    8279
33.56    8334
33.58    7991
33.6     7454
33.62    6591
33.64    5610
33.66    4512
33.68    3494
33.7     2708
33.72    2168
33.74    1836
33.76    1571
33.78    1470
33.8     1343
33.82    1194
33.84    1023
33.86    750
33.88    593
33.9     554
33.92    545
33.94    592
33.96    568
33.98    542
34.0     494
34.02    474
34.04    446
34.06    443
34.08    464
34.1     539
34.12    552
34.14    623
34.16    639
34.18    639
34.2     643
34.22    569
34.24    468
34.26    459
34.28    411
34.3     454
34.32    483
34.34    554
34.36    657
34.38    647
34.4     620
34.42    532
34.44    415
34.46    392
34.48    370
34.5     380
34.52    414
34.54    485
34.56    597
34.58    595
34.6     608
34.62    575
34.64    497
34.66    486
34.68    469
34.7     499
34.72    549
34.74    648
34.76    671
34.78    655
34.8     619
34.82    622
34.84    608
34.86    681
34.88    799
34.9     957
34.92    1147
34.94    1435
34.96    1701
34.98    2213
35.0     2919
35.02    3885
35.04    5038
35.06    6296
35.08    7420
35.1     8236
35.12    8670
35.14    8676
35.16    8238
35.18    7556
35.2     6754
35.22    5866
35.24    5033
35.26    4271
35.28    3500
35.3     2779
35.32    2239
35.34    1794
35.36    1415
35.38    1225
35.4     1183
35.42    1088
35.44    1023
35.46    944
35.48    722
35.5     591
35.52    533
35.54    455
35.56    458
35.58    574
35.6     638
35.62    652
35.64    657
35.66    643
35.68    546
35.7     516
35.72    485
35.74    533
35.76    600
35.78    648
35.8     650
35.82    654
35.84    643
35.86    633
35.88    641
35.9     630
35.92    624
35.94    676
35.96    670
35.98    664
36.0     668
36.02    669
36.04    712
36.06    753
36.08    845
36.1     939
36.12    1012
36.14    1063
36.16    1158
36.18    1239
36.2     1332
36.22    1484
36.24    1786
36.26    2096
36.28    2576
36.3     3171
36.32    3929
36.34    4987
36.36    6483
36.38    8318
36.4     10539
36.42    13018
36.44    15330
36.46    17049
36.48    18153
36.5     18335
36.52    17631
36.54    16296
36.56    14406
36.58    12260
36.6     10180
36.62    8338
36.64    6634
36.66    5260
36.68    4220
36.7     3423
36.72    2774
36.74    2359
36.76    1930
36.78    1532
36.8     1272
36.82    1053
36.84    883
36.86    846
36.88    799
36.9     798
36.92    771
36.94    775
36.96    778
36.98    737
37.0     733
37.02    690
37.04    643
37.06    589
37.08    489
37.1     456
37.12    438
37.14    543
37.16    635
37.18    717
37.2     820
37.22    831
37.24    785
37.26    708
37.28    645
37.3     666
37.32    707
37.34    808
37.36    856
37.38    911
37.4     877
37.42    701
37.44    562
37.46    473
37.48    408
37.5     399
37.52    448
37.54    520
37.56    565
37.58    593
37.6     529
37.62    480
37.64    449
37.66    388
37.68    330
37.7     403
37.72    522
37.74    611
37.76    646
37.78    704
37.8     682
37.82    623
37.84    580
37.86    461
37.88    422
37.9     481
37.92    539
37.94    516
37.96    514
37.98    556
38.0     573
38.02    458
38.04    429
38.06    400
38.08    373
38.1     365
38.12    417
38.14    419
38.16    451
38.18    484
38.2     520
38.22    462
38.24    424
38.26    443
38.28    448
38.3     394
38.32    418
38.34    447
38.36    429
38.38    337
38.4     328
38.42    310
38.44    267
38.46    274
38.48    351
38.5     348
38.52    391
38.54    491
38.56    515
38.58    461
38.6     493
38.62    469
38.64    429
38.66    430
38.68    469
38.7     428
38.72    396
38.74    350
38.76    333
38.78    270
38.8     311
38.82    312
38.84    365
38.86    402
38.88    396
38.9     382
38.92    382
38.94    311
38.96    367
38.98    344
39.0     374
39.02    330
39.04    345
39.06    367
39.08    378
39.1     420
39.12    488
39.14    489
39.16    539
39.18    489
39.2     405
39.22    314
39.24    256
39.26    275
39.28    277
39.3     352
39.32    407
39.34    444
39.36    523
39.38    567
39.4     571
39.42    563
39.44    438
39.46    363
39.48    313
39.5     294
39.52    239
39.54    279
39.56    379
39.58    488
39.6     523
39.62    518
39.64    426
39.66    365
39.68    329
39.7     306
39.72    279
39.74    332
39.76    394
39.78    447
39.8     450
39.82    502
39.84    502
39.86    545
39.88    607
39.9     651
39.92    651
39.94    684
39.96    649
39.98    557
40.0     572
40.02    599
40.04    575
40.06    626
40.08    713
40.1     713
40.12    700
40.14    706
40.16    697
40.18    671
40.2     693
40.22    736
40.24    727
40.26    727
40.28    716
40.3     681
40.32    649
40.34    647
40.36    694
40.38    721
40.4     729
40.42    806
40.44    851
40.46    842
40.48    791
40.5     802
40.52    864
40.54    876
40.56    926
40.58    984
40.6     1044
40.62    1064
40.64    1109
40.66    1025
40.68    903
40.7     845
40.72    904
40.74    892
40.76    981
40.78    1066
40.8     1200
40.82    1217
40.84    1167
40.86    1108
40.88    1071
40.9     1020
40.92    1089
40.94    1129
40.96    1275
40.98    1375
41.0     1546
41.02    1586
41.04    1585
41.06    1681
41.08    1815
41.1     1935
41.12    2119
41.14    2385
41.16    2698
41.18    2984
41.2     3372
41.22    3854
41.24    4323
41.26    4916
41.28    5737
41.3     6740
41.32    8007
41.34    9706
41.36    11815
41.38    14516
41.4     18161
41.42    22687
41.44    28374
41.46    35301
41.48    42981
41.5     50665
41.52    57434
41.54    62154
41.56    64069
41.58    62918
41.6     58946
41.62    52669
41.64    45212
41.66    37593
41.68    30484
41.7     24393
41.72    19449
41.74    15456
41.76    12348
41.78    10029
41.8     8239
41.82    6850
41.84    5734
41.86    4973
41.88    4355
41.9     3849
41.92    3475
41.94    3137
41.96    2873
41.98    2660
42.0     2451
42.02    2202
42.04    2077
42.06    1952
42.08    1782
42.1     1652
42.12    1581
42.14    1485
42.16    1410
42.18    1314
42.2     1231
42.22    1135
42.24    1054
42.26    1000
42.28    958
42.3     935
42.32    978
42.34    998
42.36    1045
42.38    1035
42.4     1047
42.42    1073
42.44    1054
42.46    1093
42.48    1045
42.5     989
42.52    947
42.54    877
42.56    799
42.58    755
42.6     691
42.62    640
42.64    686
42.66    731
42.68    780
42.7     776
42.72    776
42.74    800
42.76    772
42.78    770
42.8     704
42.82    690
42.84    712
42.86    715
42.88    762
42.9     702
42.92    666
42.94    657
42.96    616
42.98    556
43.0     577
43.02    583
43.04    604
43.06    623
43.08    638
43.1     643
43.12    577
43.14    544
43.16    539
43.18    526
43.2     529
43.22    500
43.24    570
43.26    631
43.28    646
43.3     662
43.32    557
43.34    564
43.36    495
43.38    482
43.4     489
43.42    483
43.44    549
43.46    590
43.48    647
43.5     625
43.52    585
43.54    626
43.56    560
43.58    569
43.6     580
43.62    569
43.64    507
43.66    462
43.68    514
43.7     485
43.72    447
43.74    518
43.76    569
43.78    612
43.8     646
43.82    722
43.84    698
43.86    636
43.88    571
43.9     551
43.92    481
43.94    481
43.96    509
43.98    557
44.0     597
44.02    611
44.04    586
44.06    498
44.08    444
44.1     438
44.12    420
44.14    417
44.16    476
44.18    485
44.2     509
44.22    519
44.24    559
44.26    541
44.28    528
44.3     502
44.32    525
44.34    509
44.36    435
44.38    374
44.4     413
44.42    461
44.44    447
44.46    496
44.48    562
44.5     573
44.52    552
44.54    532
44.56    527
44.58    505
44.6     484
44.62    481
44.64    524
44.66    596
44.68    606
44.7     626
44.72    604
44.74    631
44.76    640
44.78    632
44.8     563
44.82    520
44.84    559
44.86    526
44.88    586
44.9     723
44.92    840
44.94    1029
44.96    1243
44.98    1461
45.0     1547
45.02    1601
45.04    1637
45.06    1564
45.08    1474
45.1     1340
45.12    1212
45.14    1067
45.16    986
45.18    937
45.2     886
45.22    907
45.24    811
45.26    746
45.28    673
45.3     596
45.32    548
45.34    464
45.36    501
45.38    467
45.4     513
45.42    568
45.44    479
45.46    462
45.48    435
45.5     404
45.52    392
45.54    449
45.56    559
45.58    541
45.6     608
45.62    617
45.64    573
45.66    527
45.68    479
45.7     430
45.72    404
45.74    477
45.76    510
45.78    493
45.8     441
45.82    372
45.84    366
45.86    381
45.88    411
45.9     405
45.92    452
45.94    543
45.96    564
45.98    602
46.0     550
46.02    500
46.04    503
46.06    511
46.08    499
46.1     485
46.12    475
46.14    450
46.16    429
46.18    349
46.2     287
46.22    236
46.24    229
46.26    286
46.28    311
46.3     478
46.32    556
46.34    622
46.36    660
46.38    550
46.4     524
46.42    393
46.44    358
46.46    331
46.48    312
46.5     448
46.52    454
46.54    527
46.56    548
46.58    501
46.6     476
46.62    364
46.64    400
46.66    326
46.68    385
46.7     451
46.72    386
46.74    436
46.76    441
46.78    411
46.8     380
46.82    322
46.84    351
46.86    331
46.88    422
46.9     451
46.92    378
46.94    458
46.96    471
46.98    482
47.0     431
47.02    378
47.04    377
47.06    334
47.08    299
47.1     288
47.12    273
47.14    353
47.16    369
47.18    501
47.2     560
47.22    577
47.24    600
47.26    543
47.28    506
47.3     411
47.32    263
47.34    160
47.36    177
47.38    227
47.4     237
47.42    270
47.44    375
47.46    472
47.48    532
47.5     508
47.52    499
47.54    497
47.56    540
47.58    481
47.6     438
47.62    473
47.64    424
47.66    456
47.68    470
47.7     449
47.72    454
47.74    370
47.76    379
47.78    402
47.8     436
47.82    463
47.84    463
47.86    607
47.88    720
47.9     692
47.92    652
47.94    590
47.96    599
47.98    539
48.0     468
48.02    380
48.04    362
48.06    381
48.08    359
48.1     315
48.12    334
48.14    408
48.16    445
48.18    450
48.2     509
48.22    532
48.24    564
48.26    580
48.28    548
48.3     536
48.32    481
48.34    416
48.36    336
48.38    319
48.4     314
48.42    347
48.44    391
48.46    422
48.48    454
48.5     459
48.52    441
48.54    431
48.56    441
48.58    458
48.6     465
48.62    447
48.64    412
48.66    385
48.68    330
48.7     277
48.72    266
48.74    252
48.76    247
48.78    203
48.8     258
48.82    335
48.84    431
48.86    504
48.88    528
48.9     575
48.92    588
48.94    495
48.96    374
48.98    253
49.0     253
49.02    321
49.04    331
49.06    308
49.08    434
49.1     546
49.12    602
49.14    528
49.16    488
49.18    435
49.2     356
49.22    291
49.24    237
49.26    194
49.28    331
49.3     426
49.32    429
49.34    461
49.36    516
49.38    497
49.4     489
49.42    445
49.44    469
49.46    464
49.48    424
49.5     450
49.52    417
49.54    447
49.56    435
49.58    388
49.6     419
49.62    408
49.64    440
49.66    433
49.68    385
49.7     439
49.72    419
49.74    389
49.76    327
49.78    291
49.8     344
49.82    388
49.84    439
49.86    482
49.88    505
49.9     543
49.92    485
49.94    431
49.96    383
49.98    358
50.0     339
50.02    329
50.04    364
50.06    412
50.08    412
50.1     437
50.12    395
50.14    353
50.16    349
50.18    356
50.2     322
50.22    311
50.24    398
50.26    387
50.28    355
50.3     332
50.32    276
50.34    251
50.36    232
50.38    229
50.4     194
50.42    210
50.44    302
50.46    307
50.48    341
50.5     325
50.52    348
50.54    438
50.56    411
50.58    421
50.6     438
50.62    445
50.64    481
50.66    491
50.68    445
50.7     405
50.72    380
50.74    385
50.76    329
50.78    250
50.8     299
50.82    287
50.84    300
50.86    292
50.88    286
50.9     374
50.92    412
50.94    378
50.96    368
50.98    339
51.0     423
51.02    406
51.04    373
51.06    354
51.08    424
51.1     541
51.12    579
51.14    519
51.16    494
51.18    477
51.2     409
51.22    287
51.24    146
51.26    134
51.28    158
51.3     261
51.32    347
51.34    419
51.36    520
51.38    649
51.4     618
51.42    573
51.44    491
51.46    490
51.48    413
51.5     398
51.52    388
51.54    381
51.56    328
51.58    335
51.6     278
51.62    282
51.64    222
51.66    289
51.68    258
51.7     331
51.72    439
51.74    501
51.76    464
51.78    496
51.8     443
51.82    377
51.84    343
51.86    354
51.88    325
51.9     419
51.92    514
51.94    614
51.96    649
51.98    641
52.0     596
52.02    574
52.04    520
52.06    445
52.08    408
52.1     372
52.12    376
52.14    464
52.16    518
52.18    547
52.2     605
52.22    648
52.24    598
52.26    576
52.28    488
52.3     443
52.32    414
52.34    451
52.36    465
52.38    483
52.4     508
52.42    535
52.44    488
52.46    481
52.48    442
52.5     459
52.52    443
52.54    450
52.56    429
52.58    415
52.6     395
52.62    420
52.64    467
52.66    544
52.68    610
52.7     637
52.72    688
52.74    728
52.76    695
52.78    650
52.8     603
52.82    588
52.84    612
52.86    593
52.88    524
52.9     479
52.92    495
52.94    581
52.96    609
52.98    661
53.0     723
53.02    812
53.04    840
53.06    836
53.08    787
53.1     786
53.12    782
53.14    868
53.16    906
53.18    1036
53.2     1185
53.22    1430
53.24    1616
53.26    1934
53.28    2156
53.3     2440
53.32    2759
53.34    3134
53.36    3528
53.38    4028
53.4     4523
53.42    4996
53.44    5383
53.46    5594
53.48    5599
53.5     5471
53.52    5145
53.54    4681
53.56    4157
53.58    3629
53.6     3169
53.62    2680
53.64    2282
53.66    1949
53.68    1731
53.7     1549
53.72    1396
53.74    1302
53.76    1149
53.78    1056
53.8     947
53.82    831
53.84    720
53.86    681
53.88    588
53.9     654
53.92    679
53.94    763
53.96    726
53.98    751
54.0     704
54.02    738
54.04    623
54.06    557
54.08    465
54.1     463
54.12    421
54.14    499
54.16    459
54.18    527
54.2     548
54.22    616
54.24    571
54.26    532
54.28    436
54.3     451
54.32    416
54.34    371
54.36    351
54.38    424
54.4     461
54.42    584
54.44    612
54.46    638
54.48    658
54.5     718
54.52    593
54.54    456
54.56    408
54.58    386
54.6     360
54.62    374
54.64    364
54.66    403
54.68    497
54.7     508
54.72    499
54.74    464
54.76    434
54.78    421
54.8     385
54.82    366
54.84    362
54.86    319
54.88    392
54.9     404
54.92    473
54.94    424
54.96    400
54.98    401
55.0     432
55.02    435
55.04    453
55.06    363
55.08    442
55.1     482
55.12    520
55.14    446
55.16    405
55.18    422
55.2     468
55.22    479
55.24    463
55.26    391
55.28    435
55.3     468
55.32    485
55.34    444
55.36    388
55.38    398
55.4     460
55.42    463
55.44    445
55.46    420
55.48    465
55.5     517
55.52    496
55.54    479
55.56    408
55.58    390
55.6     437
55.62    461
55.64    449
55.66    481
55.68    511
55.7     519
55.72    494
55.74    417
55.76    390
55.78    344
55.8     383
55.82    403
55.84    422
55.86    462
55.88    483
55.9     548
55.92    549
55.94    540
55.96    587
55.98    481
56.0     428
56.02    355
56.04    336
56.06    319
56.08    342
56.1     323
56.12    355
56.14    460
56.16    544
56.18    530
56.2     548
56.22    538
56.24    602
56.26    594
56.28    540
56.3     449
56.32    419
56.34    382
56.36    383
56.38    373
56.4     362
56.42    345
56.44    396
56.46    412
56.48    476
56.5     514
56.52    512
56.54    541
56.56    636
56.58    647
56.6     616
56.62    552
56.64    464
56.66    384
56.68    352
56.7     247
56.72    248
56.74    336
56.76    457
56.78    538
56.8     630
56.82    671
56.84    670
56.86    651
56.88    585
56.9     490
56.92    453
56.94    384
56.96    327
56.98    367
57.0     401
57.02    465
57.04    550
57.06    634
57.08    663
57.1     720
57.12    683
57.14    597
57.16    605
57.18    608
57.2     554
57.22    497
57.24    454
57.26    439
57.28    420
57.3     471
57.32    479
57.34    497
57.36    580
57.38    636
57.4     624
57.42    632
57.44    643
57.46    621
57.48    593
57.5     644
57.52    681
57.54    726
57.56    757
57.58    782
57.6     750
57.62    804
57.64    834
57.66    784
57.68    757
57.7     768
57.72    796
57.74    850
57.76    884
57.78    880
57.8     987
57.82    1153
57.84    1349
57.86    1425
57.88    1524
57.9     1560
57.92    1628
57.94    1744
57.96    1830
57.98    2045
58.0     2332
58.02    2667
58.04    3093
58.06    3544
58.08    4066
58.1     4663
58.12    5449
58.14    6295
58.16    7274
58.18    8391
58.2     9431
58.22    10426
58.24    11292
58.26    11973
58.28    12218
58.3     12131
58.32    11691
58.34    10872
58.36    9921
58.38    8846
58.4     7717
58.42    6619
58.44    5687
58.46    4934
58.48    4252
58.5     3730
58.52    3202
58.54    2791
58.56    2517
58.58    2253
58.6     2020
58.62    1770
58.64    1624
58.66    1485
58.68    1445
58.7     1413
58.72    1230
58.74    1143
58.76    1089
58.78    982
58.8     897
58.82    791
58.84    728
58.86    670
58.88    709
58.9     721
58.92    709
58.94    793
58.96    884
58.98    904
59.0     925
59.02    918
59.04    870
59.06    849
59.08    769
59.1     695
59.12    622
59.14    603
59.16    539
59.18    446
59.2     373
59.22    354
59.24    389
59.26    446
59.28    456
59.3     508
59.32    530
59.34    594
59.36    626
59.38    577
59.4     595
59.42    631
59.44    642
59.46    631
59.48    597
59.5     517
59.52    446
59.54    465
59.56    505
59.58    463
59.6     506
59.62    509
59.64    439
59.66    464
59.68    455
59.7     436
59.72    421
59.74    517
59.76    544
59.78    529
59.8     562
59.82    523
59.84    436
59.86    402
59.88    434
59.9     462
59.92    470
59.94    560
59.96    546
59.98    579
60.0     582
60.02    566
60.04    534
60.06    463
60.08    482
60.1     441
60.12    431
60.14    500
60.16    415
60.18    390
60.2     406
60.22    419
60.24    408
60.26    433
60.28    449
60.3     444
60.32    500
60.34    600
60.36    605
60.38    654
60.4     654
60.42    609
60.44    568
60.46    537
60.48    494
60.5     387
60.52    326
60.54    368
60.56    473
60.58    475
60.6     462
60.62    510
60.64    564
60.66    624
60.68    651
60.7     610
60.72    521
60.74    492
60.76    492
60.78    379
60.8     337
60.82    294
60.84    307
60.86    324
60.88    345
60.9     424
60.92    429
60.94    443
60.96    483
60.98    483
61.0     522
61.02    590
61.04    644
61.06    578
61.08    575
61.1     532
61.12    520
61.14    441
61.16    415
61.18    325
61.2     347
61.22    381
61.24    429
61.26    462
61.28    506
61.3     526
61.32    605
61.34    656
61.36    724
61.38    681
61.4     728
61.42    698
61.44    725
61.46    718
61.48    665
61.5     666
61.52    645
61.54    617
61.56    588
61.58    564
61.6     588
61.62    611
61.64    668
61.66    665
61.68    748
61.7     840
61.72    927
61.74    994
61.76    1096
61.78    1157
61.8     1217
61.82    1330
61.84    1495
61.86    1639
61.88    1889
61.9     2155
61.92    2427
61.94    2820
61.96    3379
61.98    4022
62.0     4790
62.02    5744
62.04    6890
62.06    8114
62.08    9304
62.1     10357
62.12    11010
62.14    11407
62.16    11542
62.18    11314
62.2     10806
62.22    10100
62.24    9372
62.26    8625
62.28    7943
62.3     7337
62.32    6684
62.34    6113
62.36    5554
62.38    5075
62.4     4592
62.42    4080
62.44    3681
62.46    3303
62.48    2962
62.5     2683
62.52    2400
62.54    2178
62.56    1896
62.58    1702
62.6     1530
62.62    1309
62.64    1187
62.66    1034
62.68    944
62.7     879
62.72    802
62.74    761
62.76    735
62.78    732
62.8     742
62.82    669
62.84    676
62.86    620
62.88    677
62.9     721
62.92    707
62.94    651
62.96    662
62.98    642
63.0     604
63.02    546
63.04    555
63.06    504
63.08    532
63.1     515
63.12    453
63.14    369
63.16    409
63.18    364
63.2     347
63.22    342
63.24    404
63.26    437
63.28    511
63.3     569
63.32    626
63.34    644
63.36    713
63.38    659
63.4     654
63.42    585
63.44    555
63.46    496
63.48    425
63.5     408
63.52    347
63.54    307
63.56    347
63.58    357
63.6     439
63.62    476
63.64    564
63.66    588
63.68    567
63.7     609
63.72    643
63.74    669
63.76    718
63.78    694
63.8     661
63.82    639
63.84    595
63.86    531
63.88    430
63.9     412
63.92    402
63.94    390
63.96    456
63.98    452
64.0     437
64.02    483
64.04    470
64.06    464
64.08    417
64.1     421
64.12    407
64.14    476
64.16    515
64.18    528
64.2     576
64.22    583
64.24    532
64.26    530
64.28    483
64.3     521
64.32    526
64.34    574
64.36    506
64.38    499
64.4     494
64.42    486
64.44    509
64.46    611
64.48    635
64.5     717
64.52    748
64.54    864
64.56    911
64.58    1045
64.6     1117
64.62    1240
64.64    1419
64.66    1658
64.68    1802
64.7     2057
64.72    2285
64.74    2572
64.76    2753
64.78    3001
64.8     3120
64.82    3173
64.84    3141
64.86    3147
64.88    3028
64.9     2955
64.92    2827
64.94    2659
64.96    2475
64.98    2329
65.0     2148
65.02    2015
65.04    1786
65.06    1668
65.08    1541
65.1     1431
65.12    1321
65.14    1232
65.16    1177
65.18    1094
65.2     1013
65.22    1034
65.24    949
65.26    903
65.28    848
65.3     749
65.32    638
65.34    590
65.36    540
65.38    515
65.4     406
65.42    456
65.44    466
65.46    486
65.48    510
65.5     554
65.52    571
65.54    567
65.56    555
65.58    554
65.6     482
65.62    489
65.64    476
65.66    455
65.68    454
65.7     518
65.72    497
65.74    456
65.76    460
65.78    479
65.8     462
65.82    460
65.84    461
65.86    461
65.88    495
65.9     561
65.92    541
65.94    548
65.96    520
65.98    520
66.0     504
66.02    517
66.04    477
66.06    466
66.08    481
66.1     497
66.12    451
66.14    418
66.16    413
66.18    445
66.2     464
66.22    479
66.24    462
66.26    462
66.28    498
66.3     494
66.32    451
66.34    457
66.36    513
66.38    471
66.4     420
66.42    395
66.44    370
66.46    349
66.48    329
66.5     341
66.52    315
66.54    328
66.56    367
66.58    378
66.6     420
66.62    483
66.64    506
66.66    564
66.68    593
66.7     605
66.72    548
66.74    487
66.76    486
66.78    488
66.8     461
66.82    488
66.84    506
66.86    520
66.88    523
66.9     476
66.92    435
66.94    358
66.96    389
66.98    396
67.0     384
67.02    433
67.04    481
67.06    460
67.08    487
67.1     489
67.12    453
67.14    431
67.16    459
67.18    426
67.2     396
67.22    471
67.24    493
67.26    488
67.28    549
67.3     534
67.32    506
67.34    437
67.36    389
67.38    360
67.4     324
67.42    407
67.44    403
67.46    434
67.48    520
67.5     540
67.52    616
67.54    607
67.56    612
67.58    551
67.6     475
67.62    450
67.64    377
67.66    376
67.68    401
67.7     380
67.72    383
67.74    419
67.76    425
67.78    389
67.8     392
67.82    392
67.84    387
67.86    443
67.88    419
67.9     386
67.92    392
67.94    450
67.96    502
67.98    486
68.0     513
68.02    476
68.04    488
68.06    472
68.08    442
68.1     419
68.12    385
68.14    395
68.16    425
68.18    465
68.2     544
68.22    616
68.24    724
68.26    754
68.28    712
68.3     692
68.32    622
68.34    571
68.36    469
68.38    412
68.4     390
68.42    440
68.44    459
68.46    506
68.48    527
68.5     606
68.52    651
68.54    675
68.56    696
68.58    745
68.6     727
68.62    780
68.64    870
68.66    984
68.68    1026
68.7     1105
68.72    1175
68.74    1269
68.76    1362
68.78    1481
68.8     1584
68.82    1797
68.84    1987
68.86    2216
68.88    2359
68.9     2514
68.92    2635
68.94    2755
68.96    2810
68.98    2848
69.0     2867
69.02    2806
69.04    2692
69.06    2552
69.08    2350
69.1     2190
69.12    2019
69.14    1901
69.16    1738
69.18    1611
69.2     1491
69.22    1356
69.24    1267
69.26    1171
69.28    1131
69.3     1015
69.32    927
69.34    843
69.36    747
69.38    681
69.4     562
69.42    520
69.44    541
69.46    547
69.48    559
69.5     545
69.52    609
69.54    598
69.56    646
69.58    647
69.6     650
69.62    652
69.64    641
69.66    601
69.68    600
69.7     544
69.72    422
69.74    374
69.76    381
69.78    408
69.8     468
69.82    443
69.84    538
69.86    572
69.88    549
69.9     474
69.92    473
69.94    535
69.96    581
69.98    596
70.0     630
70.02    634
70.04    722
70.06    659
70.08    598
70.1     649
70.12    660
70.14    657
70.16    653
70.18    625
70.2     595
70.22    606
70.24    641
70.26    670
70.28    745
70.3     808
70.32    843
70.34    936
70.36    1000
70.38    1061
70.4     1123
70.42    1191
70.44    1224
70.46    1223
70.48    1312
70.5     1351
70.52    1364
70.54    1339
70.56    1369
70.58    1446
70.6     1507
70.62    1458
70.64    1422
70.66    1423
70.68    1426
70.7     1326
70.72    1228
70.74    1080
70.76    971
70.78    908
70.8     816
70.82    811
70.84    796
70.86    794
70.88    774
70.9     761
70.92    759
70.94    650
70.96    619
70.98    589
71.0     587
71.02    572
71.04    482
71.06    516
71.08    517
71.1     443
71.12    426
71.14    399
71.16    412
71.18    412
71.2     414
71.22    386
71.24    410
71.26    453
71.28    466
71.3     492
71.32    523
71.34    556
71.36    552
71.38    576
71.4     569
71.42    593
71.44    544
71.46    572
71.48    605
71.5     609
71.52    539
71.54    527
71.56    469
71.58    456
71.6     444
71.62    431
71.64    416
71.66    460
71.68    461
71.7     526
71.72    581
71.74    654
71.76    739
71.78    785
71.8     795
71.82    840
71.84    785
71.86    720
71.88    684
71.9     684
71.92    615
71.94    537
71.96    489
71.98    464
72.0     443
72.02    495
72.04    453
72.06    495
72.08    558
72.1     612
72.12    653
72.14    694
72.16    774
72.18    888
72.2     928
72.22    966
72.24    1021
72.26    1126
72.28    1196
72.3     1310
72.32    1444
72.34    1548
72.36    1694
72.38    1904
72.4     2057
72.42    2284
72.44    2570
72.46    2872
72.48    3152
72.5     3439
72.52    3635
72.54    3800
72.56    3941
72.58    3952
72.6     3813
72.62    3674
72.64    3473
72.66    3273
72.68    2977
72.7     2749
72.72    2527
72.74    2332
72.76    2154
72.78    1901
72.8     1718
72.82    1564
72.84    1457
72.86    1329
72.88    1201
72.9     1136
72.92    1049
72.94    1009
72.96    946
72.98    831
73.0     814
73.02    741
73.04    733
73.06    657
73.08    648
73.1     589
73.12    587
73.14    605
73.16    592
73.18    611
73.2     735
73.22    734
73.24    867
73.26    895
73.28    1018
73.3     1039
73.32    1008
73.34    971
73.36    971
73.38    918
73.4     869
73.42    868
73.44    901
73.46    852
73.48    885
73.5     879
73.52    853
73.54    916
73.56    897
73.58    839
73.6     866
73.62    922
73.64    879
73.66    855
73.68    868
73.7     864
73.72    819
73.74    808
73.76    736
73.78    748
73.8     788
73.82    776
73.84    729
73.86    732
73.88    786
73.9     736
73.92    723
73.94    743
73.96    759
73.98    819
74.0     824
74.02    817
74.04    826
74.06    904
74.08    957
74.1     986
74.12    1098
74.14    1205
74.16    1257
74.18    1311
74.2     1326
74.22    1433
74.24    1584
74.26    1677
74.28    1741
74.3     1863
74.32    1909
74.34    1892
74.36    1820
74.38    1788
74.4     1711
74.42    1705
74.44    1689
74.46    1600
74.48    1548
74.5     1508
74.52    1399
74.54    1356
74.56    1348
74.58    1409
74.6     1388
74.62    1423
74.64    1454
74.66    1440
74.68    1500
74.7     1530
74.72    1564
74.74    1721
74.76    1819
74.78    1907
74.8     1864
74.82    1871
74.84    1761
74.86    1723
74.88    1706
74.9     1605
74.92    1558
74.94    1575
74.96    1468
74.98    1412
75.0     1304
75.02    1246
75.04    1107
75.06    1121
75.08    1046
75.1     946
75.12    903
75.14    802
75.16    716
75.18    712
75.2     659
75.22    698
75.24    746
75.26    781
75.28    676
75.3     661
75.32    680
75.34    575
75.36    574
75.38    577
75.4     527
75.42    563
75.44    566
75.46    467
75.48    421
75.5     526
75.52    531
75.54    413
75.56    433
75.58    446
75.6     463
75.62    493
75.64    466
75.66    502
75.68    603
75.7     631
75.72    523
75.74    438
75.76    456
75.78    444
75.8     430
75.82    405
75.84    396
75.86    487
75.88    488
75.9     433
75.92    400
75.94    430
75.96    475
75.98    513
76.0     484
76.02    541
76.04    572
76.06    588
76.08    591
76.1     614
76.12    619
76.14    583
76.16    625
76.18    605
76.2     541
76.22    558
76.24    522
76.26    443
76.28    413
76.3     385
76.32    329
76.34    337
76.36    426
76.38    378
76.4     372
76.42    446
76.44    483
76.46    425
76.48    399
76.5     391
76.52    411
76.54    439
76.56    462
76.58    419
76.6     438
76.62    565
76.64    599
76.66    610
76.68    652
76.7     697
76.72    665
76.74    606
76.76    563
76.78    549
76.8     572
76.82    632
76.84    585
76.86    575
76.88    531
76.9     496
76.92    384
76.94    364
76.96    419
76.98    483
77.0     544
77.02    604
77.04    613
77.06    649
77.08    651
77.1     651
77.12    735
77.14    911
77.16    1032
77.18    1004
77.2     1051
77.22    1064
77.24    1046
77.26    1058
77.28    1062
77.3     1097
77.32    1289
77.34    1470
77.36    1580
77.38    1628
77.4     1854
77.42    2103
77.44    2338
77.46    2592
77.48    2924
77.5     3228
77.52    3562
77.54    3796
77.56    3906
77.58    3922
77.6     4044
77.62    4035
77.64    3845
77.66    3668
77.68    3581
77.7     3403
77.72    3212
77.74    2983
77.76    2722
77.78    2590
77.8     2475
77.82    2260
77.84    1978
77.86    1823
77.88    1713
77.9     1540
77.92    1377
77.94    1255
77.96    1196
77.98    1210
78.0     1160
78.02    1079
78.04    998
78.06    998
78.08    942
78.1     859
78.12    873
78.14    819
78.16    804
78.18    730
78.2     672
78.22    592
78.24    544
78.26    535
78.28    459
78.3     446
78.32    458
78.34    429
78.36    442
78.38    420
78.4     470
78.42    505
78.44    565
78.46    632
78.48    633
78.5     672
78.52    608
78.54    614
78.56    575
78.58    507
78.6     537
78.62    453
78.64    410
78.66    403
78.68    420
78.7     468
78.72    399
78.74    397
78.76    413
78.78    428
78.8     526
78.82    471
78.84    454
78.86    530
78.88    583
78.9     571
78.92    469
78.94    407
78.96    431
78.98    421
79.0     469
79.02    447
79.04    459
79.06    558
79.08    544
79.1     487
79.12    453
79.14    432
79.16    469
79.18    465
79.2     454
79.22    425
79.24    407
79.26    429
79.28    426
79.3     438
79.32    479
79.34    488
79.36    472
79.38    496
79.4     454
79.42    424
79.44    419
79.46    439
79.48    476
79.5     464
79.52    509
79.54    484
79.56    502
79.58    557
79.6     572
79.62    589
79.64    545
79.66    513
79.68    462
79.7     386
79.72    415
79.74    407
79.76    443
79.78    457
79.8     474
79.82    512
79.84    469
79.86    535
79.88    626
79.9     633
79.92    696
79.94    724
79.96    672
79.98    686
80.0     637
80.02    631
80.04    601
80.06    691
80.08    768
80.1     710
80.12    661
80.14    640
80.16    557
80.18    570
80.2     521
80.22    476
80.24    499
80.26    477
80.28    476
80.3     414
80.32    334
80.34    338
80.36    303
80.38    290
80.4     269
80.42    320
80.44    339
80.46    370
80.48    401
80.5     467
80.52    460
80.54    506
80.56    482
80.58    445
80.6     432
80.62    493
80.64    440
80.66    434
80.68    421
80.7     468
80.72    443
80.74    488
80.76    502
80.78    499
80.8     500
80.82    513
80.84    481
80.86    416
80.88    425
80.9     470
80.92    430
80.94    413
80.96    443
80.98    464
81.0     442
81.02    394
81.04    409
81.06    359
81.08    348
81.1     372
81.12    292
81.14    274
81.16    333
81.18    342
81.2     327
81.22    304
81.24    416
81.26    442
81.28    467
81.3     465
81.32    468
81.34    454
81.36    447
81.38    410
81.4     374
81.42    324
81.44    272
81.46    295
81.48    292
81.5     302
81.52    402
81.54    480
81.56    555
81.58    608
81.6     595
81.62    525
81.64    447
81.66    438
81.68    454
81.7     448
81.72    495
81.74    482
81.76    448
81.78    357
81.8     307
81.82    234
81.84    237
81.86    264
81.88    379
81.9     388
81.92    482
81.94    512
81.96    503
81.98    456
82.0     463
82.02    504
82.04    548
82.06    547
82.08    536
82.1     495
82.12    490
82.14    475
82.16    484
82.18    482
82.2     466
82.22    512
82.24    506
82.26    407
82.28    337
82.3     280
82.32    271
82.34    305
82.36    405
82.38    413
82.4     392
82.42    421
82.44    444
82.46    431
82.48    413
82.5     391
82.52    443
82.54    467
82.56    530
82.58    455
82.6     405
82.62    383
82.64    392
82.66    415
82.68    343
82.7     327
82.72    355
82.74    321
82.76    329
82.78    259
82.8     249
82.82    256
82.84    281
82.86    342
82.88    322
82.9     417
82.92    439
82.94    426
82.96    453
82.98    489
83.0     502
83.02    506
83.04    491
83.06    503
83.08    509
83.1     549
83.12    428
83.14    368
83.16    352
83.18    386
83.2     390
83.22    396
83.24    391
83.26    411
83.28    480
83.3     495
83.32    397
83.34    385
83.36    419
83.38    530
83.4     544
83.42    515
83.44    525
83.46    561
83.48    557
83.5     571
83.52    502
83.54    510
83.56    544
83.58    569
83.6     488
83.62    445
83.64    423
83.66    381
83.68    304
83.7     359
83.72    308
83.74    340
83.76    359
83.78    349
83.8     373
83.82    377
83.84    318
83.86    332
83.88    309
83.9     370
83.92    363
83.94    404
83.96    455
83.98    500
84.0     537
84.02    529
84.04    503
84.06    524
84.08    440
84.1     456
84.12    409
84.14    342
84.16    305
84.18    339
84.2     334
84.22    354
84.24    403
84.26    470
84.28    551
84.3     621
84.32    549
84.34    447
84.36    317
84.38    378
84.4     350
84.42    341
84.44    355
84.46    405
84.48    478
84.5     497
84.52    439
84.54    348
84.56    334
84.58    499
84.6     555
84.62    651
84.64    637
84.66    650
84.68    635
84.7     607
84.72    516
84.74    472
84.76    527
84.78    576
84.8     614
84.82    668
84.84    574
84.86    548
84.88    441
84.9     427
84.92    431
84.94    491
84.96    503
84.98    526
85.0     493
85.02    519
85.04    523
85.06    522
85.08    459
85.1     516
85.12    553
85.14    567
85.16    516
85.18    473
85.2     361
85.22    391
85.24    393
85.26    343
85.28    341
85.3     367
85.32    444
85.34    469
85.36    493
85.38    456
85.4     432
85.42    484
85.44    483
85.46    478
85.48    478
85.5     443
85.52    509
85.54    482
85.56    469
85.58    397
85.6     400
85.62    387
85.64    425
85.66    459
85.68    414
85.7     445
85.72    500
85.74    496
85.76    506
85.78    509
85.8     543
85.82    543
85.84    627
85.86    659
85.88    607
85.9     594
85.92    517
85.94    499
85.96    448
85.98    399
86.0     383
86.02    434
86.04    460
86.06    461
86.08    439
86.1     446
86.12    443
86.14    569
86.16    610
86.18    627
86.2     695
86.22    768
86.24    811
86.26    866
86.28    874
86.3     867
86.32    866
86.34    958
86.36    945
86.38    946
86.4     923
86.42    897
86.44    953
86.46    969
86.48    968
86.5     955
86.52    995
86.54    1006
86.56    975
86.58    935
86.6     828
86.62    745
86.64    717
86.66    654
86.68    648
86.7     615
86.72    658
86.74    704
86.76    724
86.78    750
86.8     741
86.82    703
86.84    668
86.86    626
86.88    613
86.9     578
86.92    624
86.94    647
86.96    626
86.98    599
87.0     496
87.02    377
87.04    286
87.06    345
87.08    376
87.1     398
87.12    461
87.14    471
87.16    527
87.18    547
87.2     519
87.22    499
87.24    490
87.26    515
87.28    522
87.3     513
87.32    454
87.34    415
87.36    409
87.38    417
87.4     446
87.42    451
87.44    431
87.46    452
87.48    464
87.5     451
87.52    396
87.54    366
87.56    342
87.58    362
87.6     398
87.62    435
87.64    484
87.66    546
87.68    566
87.7     644
87.72    637
87.74    576
87.76    555
87.78    484
87.8     453
87.82    481
87.84    486
87.86    460
87.88    453
87.9     452
87.92    375
87.94    376
87.96    430
87.98    406
88.0     446
88.02    499
88.04    505
88.06    474
88.08    430
88.1     319
88.12    277
88.14    359
88.16    423
88.18    404
88.2     403
88.22    397
88.24    416
88.26    523
88.28    540
88.3     501
88.32    485
88.34    537
88.36    550
88.38    575
88.4     572
88.42    510
88.44    546
88.46    628
88.48    650
88.5     674
88.52    637
88.54    565
88.56    573
88.58    604
88.6     560
88.62    501
88.64    493
88.66    440
88.68    470
88.7     532
88.72    501
88.74    422
88.76    430
88.78    412
88.8     353
88.82    388
88.84    369
88.86    359
88.88    396
88.9     427
88.92    450
88.94    491
88.96    440
88.98    467
89.0     412
89.02    501
89.04    571
89.06    577
89.08    588
89.1     555
89.12    597
89.14    568
89.16    454
89.18    441
89.2     334
89.22    344
89.24    443
89.26    414
89.28    410
89.3     323
89.32    299
89.34    258
89.36    244
89.38    302
89.4     303
89.42    428
89.44    551
89.46    578
89.48    567
89.5     510
89.52    443
89.54    403
89.56    488
89.58    572
89.6     589
89.62    636
89.64    597
89.66    600
89.68    599
89.7     596
89.72    577
89.74    521
89.76    554
89.78    542
89.8     521
89.82    480
89.84    447
89.86    472
89.88    483
89.9     550
89.92    526
89.94    540
89.96    524
89.98    525
90.0     533
