?
5.0      814
5.02     814
5.04     1056
5.06     985
5.08     1012
5.1      1020
5.12     1052
5.14     1059
5.16     1067
5.18     1035
5.2      1022
5.22     1007
5.24     1003
5.26     976
5.28     988
5.3      1025
5.32     1066
5.34     1078
5.36     1089
5.38     1066
5.4      1083
5.42     1078
5.44     1070
5.46     1042
5.48     1018
5.5      1020
5.52     1030
5.54     1033
5.56     1006
5.58     1012
5.6      1014
5.62     1016
5.64     1027
5.66     1030
5.68     1012
5.7      1041
5.72     1064
5.74     1094
5.76     1075
5.78     1041
5.8      1033
5.82     1037
5.84     1064
5.86     1085
5.88     1073
5.9      1069
5.92     1070
5.94     1093
5.96     1061
5.98     1001
6.0      1005
6.02     1016
6.04     1070
6.06     1045
6.08     1035
6.1      1021
6.12     1017
6.14     1005
6.16     968
6.18     956
6.2      958
6.22     1002
6.24     1035
6.26     999
6.28     1052
6.3      1067
6.32     1054
6.34     1014
6.36     974
6.38     968
6.4      942
6.42     996
6.44     987
6.46     967
6.48     1018
6.5      1019
6.52     1008
6.54     983
6.56     953
6.58     955
6.6      947
6.62     1013
6.64     992
6.66     1016
6.68     1045
6.7      1014
6.72     1046
6.74     1054
6.76     1030
6.78     1010
6.8      1027
6.82     1003
6.84     988
6.86     988
6.88     993
6.9      964
6.92     985
6.94     971
6.96     930
6.98     930
7.0      933
7.02     928
7.04     900
7.06     944
7.08     932
7.1      951
7.12     944
7.14     891
7.16     912
7.18     950
7.2      909
7.22     944
7.24     878
7.26     903
7.28     860
7.3      903
7.32     902
7.34     872
7.36     917
7.38     966
7.4      972
7.42     997
7.44     979
7.46     962
7.48     979
7.5      989
7.52     1012
7.54     948
7.56     931
7.58     930
7.6      915
7.62     893
7.64     905
7.66     905
7.68     882
7.7      889
7.72     872
7.74     860
7.76     862
7.78     881
7.8      934
7.82     907
7.84     947
7.86     954
7.88     879
7.9      830
7.92     782
7.94     803
7.96     785
7.98     826
8.0      808
8.02     805
8.04     880
8.06     873
8.08     854
8.1      866
8.12     887
8.14     946
8.16     903
8.18     952
8.2      914
8.22     925
8.24     937
8.26     919
8.28     921
8.3      913
8.32     882
8.34     933
8.36     890
8.38     882
8.4      818
8.42     829
8.44     839
8.46     831
8.48     841
8.5      788
8.52     836
8.54     884
8.56     867
8.58     815
8.6      844
8.62     878
8.64     828
8.66     854
8.68     820
8.7      820
8.72     853
8.74     845
8.76     862
8.78     836
8.8      908
8.82     871
8.84     833
8.86     827
8.88     777
8.9      837
8.92     836
8.94     834
8.96     891
8.98     904
9.0      947
9.02     930
9.04     941
9.06     930
9.08     864
9.1      862
9.12     773
9.14     705
9.16     647
9.18     609
9.2      583
9.22     614
9.24     650
9.26     691
9.28     720
9.3      775
9.32     710
9.34     697
9.36     694
9.38     684
9.4      688
9.42     658
9.44     676
9.46     719
9.48     750
9.5      714
9.52     667
9.54     657
9.56     677
9.58     670
9.6      694
9.62     614
9.64     698
9.66     706
9.68     689
9.7      722
9.72     765
9.74     739
9.76     775
9.78     786
9.8      756
9.82     671
9.84     725
9.86     691
9.88     622
9.9      659
9.92     649
9.94     606
9.96     663
9.98     635
10.0     642
10.02    658
10.04    696
10.06    718
10.08    715
10.1     719
10.12    679
10.14    683
10.16    656
10.18    644
10.2     627
10.22    606
10.24    622
10.26    620
10.28    654
10.3     645
10.32    661
10.34    739
10.36    715
10.38    740
10.4     666
10.42    619
10.44    634
10.46    597
10.48    593
10.5     613
10.52    610
10.54    642
10.56    633
10.58    637
10.6     571
10.62    626
10.64    676
10.66    713
10.68    736
10.7     775
10.72    733
10.74    756
10.76    738
10.78    717
10.8     647
10.82    641
10.84    617
10.86    630
10.88    645
10.9     684
10.92    659
10.94    713
10.96    735
10.98    771
11.0     728
11.02    685
11.04    671
11.06    663
11.08    657
11.1     711
11.12    726
11.14    708
11.16    739
11.18    810
11.2     783
11.22    775
11.24    729
11.26    675
11.28    641
11.3     679
11.32    678
11.34    669
11.36    713
11.38    763
11.4     761
11.42    751
11.44    742
11.46    702
11.48    714
11.5     715
11.52    731
11.54    764
11.56    759
11.58    741
11.6     743
11.62    763
11.64    773
11.66    766
11.68    830
11.7     859
11.72    874
11.74    836
11.76    832
11.78    818
11.8     811
11.82    840
11.84    815
11.86    837
11.88    840
11.9     880
11.92    849
11.94    854
11.96    860
11.98    869
12.0     857
12.02    889
12.04    846
12.06    864
12.08    872
12.1     940
12.12    960
12.14    996
12.16    1003
12.18    1013
12.2     988
12.22    1012
12.24    948
12.26    1009
12.28    1017
12.3     1010
12.32    1025
12.34    999
12.36    978
12.38    1004
12.4     1023
12.42    1060
12.44    988
12.46    975
12.48    936
12.5     929
12.52    971
12.54    972
12.56    951
12.58    997
12.6     1077
12.62    1046
12.64    963
12.66    975
12.68    946
12.7     997
12.72    996
12.74    1004
12.76    952
12.78    951
12.8     1020
12.82    992
12.84    971
12.86    1015
12.88    966
12.9     1075
12.92    1060
12.94    1097
12.96    1121
12.98    1115
13.0     1136
13.02    1077
13.04    1058
13.06    1055
13.08    995
13.1     1031
13.12    1055
13.14    1110
13.16    1155
13.18    1128
13.2     1170
13.22    1152
13.24    1229
13.26    1212
13.28    1188
13.3     1185
13.32    1147
13.34    1118
13.36    1092
13.38    1085
13.4     1105
13.42    1101
13.44    1154
13.46    1195
13.48    1199
13.5     1165
13.52    1083
13.54    1025
13.56    1061
13.58    1085
13.6     1092
13.62    1156
13.64    1193
13.66    1245
13.68    1228
13.7     1192
13.72    1135
13.74    1102
13.76    1178
13.78    1207
13.8     1233
13.82    1288
13.84    1307
13.86    1328
13.88    1303
13.9     1284
13.92    1216
13.94    1175
13.96    1157
13.98    1170
14.0     1202
14.02    1235
14.04    1254
14.06    1262
14.08    1245
14.1     1245
14.12    1203
14.14    1263
14.16    1228
14.18    1202
14.2     1247
14.22    1278
14.24    1274
14.26    1258
14.28    1235
14.3     1236
14.32    1249
14.34    1307
14.36    1195
14.38    1147
14.4     1255
14.42    1288
14.44    1303
14.46    1284
14.48    1276
14.5     1292
14.52    1250
14.54    1264
14.56    1227
14.58    1200
14.6     1276
14.62    1244
14.64    1267
14.66    1321
14.68    1267
14.7     1234
14.72    1249
14.74    1324
14.76    1328
14.78    1301
14.8     1304
14.82    1295
14.84    1352
14.86    1429
14.88    1352
14.9     1371
14.92    1533
14.94    1594
14.96    1561
14.98    1534
15.0     1505
15.02    1478
15.04    1469
15.06    1455
15.08    1390
15.1     1399
15.12    1430
15.14    1356
15.16    1324
15.18    1379
15.2     1397
15.22    1377
15.24    1450
15.26    1451
15.28    1394
15.3     1434
15.32    1413
15.34    1352
15.36    1329
15.38    1369
15.4     1352
15.42    1306
15.44    1359
15.46    1368
15.48    1364
15.5     1473
15.52    1454
15.54    1441
15.56    1483
15.58    1555
15.6     1533
15.62    1453
15.64    1462
15.66    1497
15.68    1464
15.7     1431
15.72    1378
15.74    1420
15.76    1452
15.78    1440
15.8     1443
15.82    1457
15.84    1463
15.86    1557
15.88    1671
15.9     1688
15.92    1750
15.94    1822
15.96    1838
15.98    1825
16.0     1927
16.02    1981
16.04    1998
16.06    2139
16.08    2266
16.1     2351
16.12    2506
16.14    2637
16.16    2818
16.18    3000
16.2     3301
16.22    3522
16.24    3788
16.26    4166
16.28    4605
16.3     5241
16.32    6002
16.34    6855
16.36    7993
16.38    9453
16.4     11239
16.42    13399
16.44    16181
16.46    19947
16.48    24851
16.5     31128
16.52    38751
16.54    46480
16.56    52519
16.58    55187
16.6     53687
16.62    48154
16.64    39684
16.66    29931
16.68    20459
16.7     12942
16.72    8248
16.74    5869
16.76    4864
16.78    4265
16.8     3779
16.82    3375
16.84    3105
16.86    2866
16.88    2718
16.9     2575
16.92    2357
16.94    2241
16.96    2227
16.98    2111
17.0     1987
17.02    2006
17.04    1929
17.06    1804
17.08    1782
17.1     1716
17.12    1605
17.14    1593
17.16    1648
17.18    1664
17.2     1604
17.22    1566
17.24    1504
17.26    1525
17.28    1501
17.3     1422
17.32    1301
17.34    1351
17.36    1447
17.38    1449
17.4     1378
17.42    1349
17.44    1396
17.46    1450
17.48    1385
17.5     1300
17.52    1252
17.54    1329
17.56    1357
17.58    1302
17.6     1291
17.62    1317
17.64    1365
17.66    1321
17.68    1273
17.7     1202
17.72    1160
17.74    1142
17.76    1091
17.78    1020
17.8     1027
17.82    1096
17.84    1176
17.86    1168
17.88    1212
17.9     1171
17.92    1119
17.94    1051
17.96    1046
17.98    1064
18.0     1120
18.02    1148
18.04    1224
18.06    1265
18.08    1271
18.1     1182
18.12    1060
18.14    1071
18.16    1098
18.18    1115
18.2     1161
18.22    1131
18.24    1137
18.26    1126
18.28    1122
18.3     1047
18.32    962
18.34    963
18.36    917
18.38    932
18.4     948
18.42    961
18.44    897
18.46    941
18.48    1021
18.5     1014
18.52    989
18.54    965
18.56    986
18.58    1016
18.6     987
18.62    970
18.64    923
18.66    948
18.68    912
18.7     899
18.72    872
18.74    905
18.76    931
18.78    946
18.8     948
18.82    967
18.84    994
18.86    967
18.88    972
18.9     998
18.92    991
18.94    1037
18.96    1020
18.98    994
19.0     989
19.02    965
19.04    888
19.06    883
19.08    938
19.1     983
19.12    942
19.14    911
19.16    915
19.18    937
19.2     905
19.22    871
19.24    805
19.26    869
19.28    902
19.3     932
19.32    867
19.34    847
19.36    853
19.38    826
19.4     806
19.42    837
19.44    817
19.46    823
19.48    844
19.5     817
19.52    791
19.54    791
19.56    739
19.58    732
19.6     802
19.62    842
19.64    808
19.66    800
19.68    812
19.7     796
19.72    765
19.74    761
19.76    759
19.78    753
19.8     740
19.82    697
19.84    685
19.86    721
19.88    727
19.9     763
19.92    768
19.94    812
19.96    801
19.98    760
20.0     769
20.02    794
20.04    815
20.06    769
20.08    652
20.1     652
20.12    708
20.14    696
20.16    605
20.18    641
20.2     734
20.22    777
20.24    727
20.26    616
20.28    590
20.3     651
20.32    749
20.34    717
20.36    663
20.38    721
20.4     787
20.42    756
20.44    712
20.46    692
20.48    744
20.5     733
20.52    789
20.54    736
20.56    747
20.58    769
20.6     760
20.62    703
20.64    754
20.66    842
20.68    890
20.7     849
20.72    828
20.74    755
20.76    742
20.78    697
20.8     645
20.82    592
20.84    611
20.86    643
20.88    656
20.9     677
20.92    756
20.94    754
20.96    735
20.98    737
21.0     735
21.02    705
21.04    703
21.06    698
21.08    673
21.1     685
21.12    740
21.14    718
21.16    639
21.18    593
21.2     545
21.22    551
21.24    579
21.26    629
21.28    632
21.3     665
21.32    677
21.34    677
21.36    677
21.38    652
21.4     589
21.42    512
21.44    472
21.46    529
21.48    509
21.5     486
21.52    412
21.54    474
21.56    592
21.58    645
21.6     651
21.62    579
21.64    568
21.66    606
21.68    619
21.7     597
21.72    605
21.74    620
21.76    640
21.78    604
21.8     584
21.82    535
21.84    538
21.86    581
21.88    633
21.9     647
21.92    633
21.94    615
21.96    592
21.98    596
22.0     562
22.02    516
22.04    511
22.06    579
22.08    626
22.1     647
22.12    594
22.14    611
22.16    573
22.18    575
22.2     514
22.22    526
22.24    599
22.26    665
22.28    649
22.3     632
22.32    600
22.34    592
22.36    531
22.38    498
22.4     553
22.42    615
22.44    699
22.46    689
22.48    652
22.5     659
22.52    667
22.54    673
22.56    608
22.58    581
22.6     598
22.62    592
22.64    603
22.66    588
22.68    537
22.7     496
22.72    484
22.74    457
22.76    465
22.78    454
22.8     485
22.82    526
22.84    587
22.86    620
22.88    599
22.9     601
22.92    630
22.94    626
22.96    588
22.98    479
23.0     449
23.02    462
23.04    531
23.06    503
23.08    506
23.1     509
23.12    526
23.14    556
23.16    568
23.18    543
23.2     512
23.22    525
23.24    563
23.26    595
23.28    601
23.3     559
23.32    525
23.34    538
23.36    545
23.38    527
23.4     502
23.42    476
23.44    455
23.46    471
23.48    442
23.5     470
23.52    465
23.54    458
23.56    451
23.58    458
23.6     489
23.62    485
23.64    478
23.66    456
23.68    469
23.7     476
23.72    509
23.74    486
23.76    499
23.78    483
23.8     534
23.82    567
23.84    583
23.86    552
23.88    479
23.9     445
23.92    490
23.94    480
23.96    480
23.98    466
24.0     514
24.02    555
24.04    549
24.06    556
24.08    535
24.1     593
24.12    600
24.14    560
24.16    462
24.18    439
24.2     487
24.22    465
24.24    475
24.26    490
24.28    511
24.3     500
24.32    471
24.34    427
24.36    338
24.38    304
24.4     363
24.42    349
24.44    426
24.46    462
24.48    443
24.5     395
24.52    375
24.54    401
24.56    404
24.58    410
24.6     447
24.62    409
24.64    428
24.66    433
24.68    419
24.7     438
24.72    487
24.74    579
24.76    593
24.78    549
24.8     466
24.82    349
24.84    333
24.86    389
24.88    436
24.9     429
24.92    455
24.94    422
24.96    368
24.98    387
25.0     400
25.02    403
25.04    451
25.06    487
25.08    511
25.1     486
25.12    493
25.14    411
25.16    387
25.18    476
25.2     527
25.22    609
25.24    580
25.26    550
25.28    522
25.3     501
25.32    431
25.34    397
25.36    381
25.38    403
25.4     434
25.42    464
25.44    393
25.46    345
25.48    300
25.5     337
25.52    347
25.54    433
25.56    411
25.58    429
25.6     467
25.62    469
25.64    446
25.66    440
25.68    432
25.7     463
25.72    442
25.74    433
25.76    335
25.78    339
25.8     341
25.82    452
25.84    468
25.86    506
25.88    509
25.9     519
25.92    505
25.94    414
25.96    373
25.98    410
26.0     425
26.02    537
26.04    500
26.06    512
26.08    469
26.1     451
26.12    410
26.14    300
26.16    320
26.18    321
26.2     354
26.22    414
26.24    422
26.26    470
26.28    427
26.3     409
26.32    349
26.34    308
26.36    325
26.38    329
26.4     338
26.42    358
26.44    392
26.46    440
26.48    403
26.5     447
26.52    494
26.54    542
26.56    548
26.58    484
26.6     380
26.62    366
26.64    328
26.66    318
26.68    312
26.7     370
26.72    412
26.74    464
26.76    467
26.78    457
26.8     425
26.82    397
26.84    381
26.86    371
26.88    421
26.9     417
26.92    404
26.94    455
26.96    482
26.98    546
27.0     528
27.02    501
27.04    501
27.06    495
27.08    512
27.1     445
27.12    363
27.14    387
27.16    387
27.18    458
27.2     430
27.22    440
27.24    424
27.26    396
27.28    395
27.3     396
27.32    368
27.34    479
27.36    495
27.38    555
27.4     514
27.42    454
27.44    392
27.46    318
27.48    332
27.5     306
27.52    293
27.54    362
27.56    381
27.58    433
27.6     432
27.62    366
27.64    360
27.66    335
27.68    365
27.7     414
27.72    451
27.74    458
27.76    474
27.78    452
27.8     436
27.82    384
27.84    408
27.86    426
27.88    475
27.9     556
27.92    522
27.94    475
27.96    437
27.98    370
28.0     339
28.02    315
28.04    339
28.06    318
28.08    352
28.1     355
28.12    356
28.14    382
28.16    475
28.18    449
28.2     470
28.22    462
28.24    453
28.26    415
28.28    437
28.3     393
28.32    412
28.34    441
28.36    442
28.38    350
28.4     376
28.42    431
28.44    462
28.46    467
28.48    444
28.5     398
28.52    422
28.54    368
28.56    296
28.58    260
28.6     335
28.62    420
28.64    440
28.66    394
28.68    365
28.7     371
28.72    415
28.74    390
28.76    409
28.78    372
28.8     416
28.82    373
28.84    336
28.86    344
28.88    327
28.9     396
28.92    465
28.94    447
28.96    477
28.98    445
29.0     449
29.02    471
29.04    441
29.06    501
29.08    478
29.1     479
29.12    438
29.14    320
29.16    301
29.18    302
29.2     298
29.22    439
29.24    463
29.26    517
29.28    507
29.3     393
29.32    391
29.34    342
29.36    382
29.38    465
29.4     495
29.42    582
29.44    521
29.46    434
29.48    350
29.5     309
29.52    380
29.54    415
29.56    495
29.58    526
29.6     488
29.62    442
29.64    354
29.66    334
29.68    330
29.7     380
29.72    432
29.74    485
29.76    465
29.78    399
29.8     341
29.82    303
29.84    321
29.86    409
29.88    445
29.9     513
29.92    502
29.94    465
29.96    424
29.98    352
30.0     395
30.02    398
30.04    444
30.06    550
30.08    497
30.1     510
30.12    435
30.14    409
30.16    470
30.18    473
30.2     541
30.22    518
30.24    519
30.26    524
30.28    454
30.3     440
30.32    382
30.34    349
30.36    349
30.38    373
30.4     429
30.42    505
30.44    481
30.46    444
30.48    417
30.5     324
30.52    248
30.54    224
30.56    188
30.58    316
30.6     389
30.62    456
30.64    442
30.66    402
30.68    446
30.7     403
30.72    437
30.74    412
30.76    361
30.78    359
30.8     336
30.82    386
30.84    383
30.86    358
30.88    325
30.9     245
30.92    298
30.94    269
30.96    316
30.98    315
31.0     367
31.02    459
31.04    465
31.06    438
31.08    341
31.1     303
31.12    358
31.14    332
31.16    298
31.18    282
31.2     280
31.22    378
31.24    463
31.26    499
31.28    559
31.3     561
31.32    553
31.34    505
31.36    397
31.38    400
31.4     330
31.42    347
31.44    405
31.46    401
31.48    480
31.5     499
31.52    467
31.54    466
31.56    383
31.58    396
31.6     358
31.62    409
31.64    486
31.66    531
31.68    569
31.7     596
31.72    522
31.74    516
31.76    443
31.78    422
31.8     388
31.82    389
31.84    395
31.86    387
31.88    311
31.9     383
31.92    383
31.94    480
31.96    540
31.98    577
32.0     570
32.02    502
32.04    456
32.06    404
32.08    341
32.1     418
32.12    436
32.14    517
32.16    621
32.18    630
32.2     627
32.22    645
32.24    698
32.26    730
32.28    790
32.3     847
32.32    865
32.34    850
32.36    786
32.38    688
32.4     607
32.42    617
32.44    641
32.46    638
32.48    667
32.5     640
32.52    578
32.54    517
32.56    470
32.58    472
32.6     461
32.62    581
32.64    660
32.66    672
32.68    676
32.7     561
32.72    519
32.74    502
32.76    515
32.78    581
32.8     611
32.82    706
32.84    753
32.86    736
32.88    720
32.9     655
32.92    679
32.94    617
32.96    590
32.98    594
33.0     518
33.02    512
33.04    513
33.06    530
33.08    618
33.1     677
33.12    747
33.14    726
33.16    712
33.18    716
33.2     647
33.22    698
33.24    773
33.26    886
33.28    1097
33.3     1211
33.32    1364
33.34    1414
33.36    1518
33.38    1720
33.4     1993
33.42    2477
33.44    3170
33.46    4158
33.48    5586
33.5     7293
33.52    9220
33.54    10951
33.56    12155
33.58    12649
33.6     12251
33.62    11043
33.64    9274
33.66    7349
33.68    5545
33.7     4148
33.72    3103
33.74    2421
33.76    1944
33.78    1653
33.8     1441
33.82    1272
33.84    1146
33.86    1073
33.88    984
33.9     936
33.92    864
33.94    880
33.96    862
33.98    809
34.0     777
34.02    719
34.04    642
34.06    585
34.08    585
34.1     638
34.12    736
34.14    798
34.16    771
34.18    691
34.2     579
34.22    509
34.24    484
34.26    495
34.28    573
34.3     646
34.32    647
34.34    635
34.36    586
34.38    538
34.4     532
34.42    605
34.44    673
34.46    728
34.48    732
34.5     669
34.52    585
34.54    521
34.56    492
34.58    509
34.6     643
34.62    703
34.64    735
34.66    716
34.68    591
34.7     497
34.72    436
34.74    452
34.76    503
34.78    609
34.8     772
34.82    855
34.84    866
34.86    829
34.88    832
34.9     889
34.92    998
34.94    1227
34.96    1481
34.98    1767
35.0     2258
35.02    2982
35.04    4076
35.06    5782
35.08    7992
35.1     10239
35.12    12043
35.14    12986
35.16    12870
35.18    11629
35.2     9652
35.22    7269
35.24    4977
35.26    3192
35.28    2095
35.3     1507
35.32    1227
35.34    1111
35.36    1132
35.38    1124
35.4     1117
35.42    1136
35.44    1055
35.46    976
35.48    923
35.5     818
35.52    706
35.54    614
35.56    600
35.58    624
35.6     690
35.62    800
35.64    904
35.66    955
35.68    935
35.7     830
35.72    703
35.74    618
35.76    587
35.78    644
35.8     657
35.82    731
35.84    800
35.86    848
35.88    841
35.9     786
35.92    714
35.94    735
35.96    736
35.98    722
36.0     788
36.02    837
36.04    843
36.06    912
36.08    842
36.1     821
36.12    846
36.14    959
36.16    1064
36.18    1185
36.2     1388
36.22    1545
36.24    1700
36.26    1926
36.28    2130
36.3     2521
36.32    3016
36.34    3778
36.36    4868
36.38    6480
36.4     8966
36.42    12515
36.44    16769
36.46    21229
36.48    24694
36.5     26438
36.52    26172
36.54    23924
36.56    19957
36.58    15310
36.6     10894
36.62    7335
36.64    4903
36.66    3552
36.68    2698
36.7     2096
36.72    1778
36.74    1476
36.76    1211
36.78    1135
36.8     1091
36.82    1072
36.84    1056
36.86    1061
36.88    1065
36.9     999
36.92    920
36.94    839
36.96    819
36.98    774
37.0     736
37.02    717
37.04    703
37.06    711
37.08    733
37.1     709
37.12    644
37.14    607
37.16    577
37.18    538
37.2     508
37.22    568
37.24    659
37.26    768
37.28    816
37.3     842
37.32    830
37.34    891
37.36    922
37.38    995
37.4     999
37.42    995
37.44    876
37.46    745
37.48    591
37.5     479
37.52    375
37.54    436
37.56    465
37.58    552
37.6     653
37.62    691
37.64    643
37.66    663
37.68    676
37.7     613
37.72    557
37.74    496
37.76    446
37.78    504
37.8     593
37.82    672
37.84    778
37.86    929
37.88    995
37.9     906
37.92    787
37.94    649
37.96    554
37.98    470
38.0     478
38.02    501
38.04    529
38.06    558
38.08    542
38.1     447
38.12    374
38.14    340
38.16    346
38.18    401
38.2     486
38.22    520
38.24    536
38.26    540
38.28    507
38.3     393
38.32    337
38.34    325
38.36    358
38.38    381
38.4     398
38.42    509
38.44    544
38.46    587
38.48    588
38.5     509
38.52    456
38.54    466
38.56    437
38.58    408
38.6     454
38.62    502
38.64    521
38.66    534
38.68    515
38.7     394
38.72    339
38.74    356
38.76    337
38.78    346
38.8     425
38.82    493
38.84    544
38.86    548
38.88    545
38.9     519
38.92    549
38.94    539
38.96    552
38.98    543
39.0     584
39.02    605
39.04    584
39.06    490
39.08    495
39.1     463
39.12    431
39.14    448
39.16    530
39.18    515
39.2     518
39.22    502
39.24    499
39.26    410
39.28    432
39.3     441
39.32    467
39.34    482
39.36    574
39.38    560
39.4     519
39.42    501
39.44    543
39.46    476
39.48    496
39.5     623
39.52    666
39.54    612
39.56    677
39.58    658
39.6     615
39.62    549
39.64    534
39.66    495
39.68    512
39.7     572
39.72    589
39.74    552
39.76    590
39.78    628
39.8     633
39.82    605
39.84    597
39.86    567
39.88    517
39.9     485
39.92    490
39.94    492
39.96    548
39.98    660
40.0     729
40.02    845
40.04    845
40.06    833
40.08    793
40.1     866
40.12    820
40.14    792
40.16    836
40.18    848
40.2     826
40.22    837
40.24    813
40.26    811
40.28    884
40.3     1003
40.32    972
40.34    998
40.36    998
40.38    881
40.4     809
40.42    756
40.44    736
40.46    714
40.48    864
40.5     901
40.52    959
40.54    992
40.56    1036
40.58    954
40.6     961
40.62    940
40.64    868
40.66    817
40.68    888
40.7     854
40.72    943
40.74    969
40.76    1066
40.78    1068
40.8     1115
40.82    1073
40.84    1076
40.86    1040
40.88    1059
40.9     1053
40.92    1127
40.94    1127
40.96    1222
40.98    1349
41.0     1401
41.02    1493
41.04    1573
41.06    1613
41.08    1666
41.1     1722
41.12    1795
41.14    1929
41.16    2172
41.18    2451
41.2     2707
41.22    3106
41.24    3447
41.26    3843
41.28    4375
41.3     5048
41.32    5965
41.34    7149
41.36    8700
41.38    10701
41.4     13437
41.42    17388
41.44    23055
41.46    31184
41.48    42589
41.5     56599
41.52    71249
41.54    83421
41.56    90563
41.58    91045
41.6     84876
41.62    73289
41.64    58424
41.66    43248
41.68    30425
41.7     21076
41.72    14921
41.74    10972
41.76    8354
41.78    6548
41.8     5371
41.82    4551
41.84    3987
41.86    3635
41.88    3308
41.9     3026
41.92    2697
41.94    2459
41.96    2227
41.98    2081
42.0     1937
42.02    1738
42.04    1678
42.06    1627
42.08    1602
42.1     1600
42.12    1519
42.14    1444
42.16    1405
42.18    1348
42.2     1250
42.22    1111
42.24    1063
42.26    1038
42.28    1092
42.3     1192
42.32    1184
42.34    1178
42.36    1236
42.38    1205
42.4     1178
42.42    1138
42.44    1120
42.46    1078
42.48    1074
42.5     1044
42.52    961
42.54    924
42.56    859
42.58    801
42.6     790
42.62    793
42.64    791
42.66    795
42.68    809
42.7     761
42.72    790
42.74    744
42.76    680
42.78    684
42.8     649
42.82    655
42.84    610
42.86    708
42.88    822
42.9     868
42.92    923
42.94    928
42.96    930
42.98    887
43.0     804
43.02    752
43.04    652
43.06    637
43.08    649
43.1     636
43.12    602
43.14    581
43.16    586
43.18    622
43.2     691
43.22    754
43.24    795
43.26    830
43.28    826
43.3     769
43.32    675
43.34    544
43.36    529
43.38    466
43.4     478
43.42    530
43.44    640
43.46    719
43.48    779
43.5     829
43.52    876
43.54    803
43.56    800
43.58    679
43.6     625
43.62    540
43.64    479
43.66    472
43.68    533
43.7     603
43.72    694
43.74    749
43.76    834
43.78    830
43.8     796
43.82    711
43.84    616
43.86    585
43.88    579
43.9     598
43.92    669
43.94    710
43.96    759
43.98    762
44.0     748
44.02    702
44.04    603
44.06    516
44.08    455
44.1     461
44.12    499
44.14    526
44.16    648
44.18    738
44.2     803
44.22    764
44.24    697
44.26    550
44.28    447
44.3     464
44.32    460
44.34    554
44.36    692
44.38    795
44.4     782
44.42    697
44.44    633
44.46    480
44.48    367
44.5     316
44.52    303
44.54    367
44.56    501
44.58    662
44.6     751
44.62    881
44.64    892
44.66    871
44.68    783
44.7     657
44.72    577
44.74    502
44.76    567
44.78    589
44.8     633
44.82    671
44.84    700
44.86    796
44.88    758
44.9     779
44.92    864
44.94    1012
44.96    1235
44.98    1425
45.0     1729
45.02    1983
45.04    2226
45.06    2311
45.08    2220
45.1     2104
45.12    1931
45.14    1703
45.16    1428
45.18    1150
45.2     1011
45.22    817
45.24    672
45.26    598
45.28    581
45.3     626
45.32    668
45.34    716
45.36    712
45.38    660
45.4     657
45.42    577
45.44    541
45.46    536
45.48    561
45.5     596
45.52    557
45.54    598
45.56    600
45.58    575
45.6     619
45.62    660
45.64    701
45.66    694
45.68    688
45.7     661
45.72    590
45.74    496
45.76    419
45.78    351
45.8     430
45.82    488
45.84    530
45.86    569
45.88    594
45.9     668
45.92    621
45.94    562
45.96    498
45.98    477
46.0     505
46.02    457
46.04    444
46.06    429
46.08    457
46.1     498
46.12    484
46.14    557
46.16    587
46.18    645
46.2     641
46.22    639
46.24    632
46.26    560
46.28    485
46.3     398
46.32    346
46.34    343
46.36    381
46.38    402
46.4     431
46.42    541
46.44    640
46.46    670
46.48    686
46.5     701
46.52    711
46.54    664
46.56    596
46.58    472
46.6     389
46.62    375
46.64    368
46.66    383
46.68    431
46.7     472
46.72    556
46.74    539
46.76    568
46.78    568
46.8     522
46.82    558
46.84    554
46.86    548
46.88    493
46.9     492
46.92    505
46.94    460
46.96    480
46.98    500
47.0     482
47.02    558
47.04    624
47.06    617
47.08    627
47.1     654
47.12    593
47.14    519
47.16    451
47.18    416
47.2     378
47.22    400
47.24    489
47.26    519
47.28    643
47.3     663
47.32    646
47.34    627
47.36    642
47.38    549
47.4     519
47.42    522
47.44    505
47.46    486
47.48    478
47.5     451
47.52    476
47.54    478
47.56    550
47.58    532
47.6     636
47.62    693
47.64    631
47.66    545
47.68    491
47.7     427
47.72    364
47.74    272
47.76    310
47.78    436
47.8     596
47.82    715
47.84    783
47.86    812
47.88    829
47.9     712
47.92    619
47.94    527
47.96    459
47.98    463
48.0     453
48.02    436
48.04    476
48.06    523
48.08    529
48.1     522
48.12    516
48.14    521
48.16    505
48.18    541
48.2     478
48.22    485
48.24    560
48.26    583
48.28    551
48.3     489
48.32    450
48.34    478
48.36    502
48.38    503
48.4     526
48.42    602
48.44    615
48.46    581
48.48    565
48.5     517
48.52    504
48.54    452
48.56    447
48.58    459
48.6     529
48.62    567
48.64    568
48.66    605
48.68    649
48.7     616
48.72    571
48.74    501
48.76    521
48.78    502
48.8     540
48.82    558
48.84    491
48.86    465
48.88    450
48.9     450
48.92    473
48.94    456
48.96    449
48.98    392
49.0     395
49.02    306
49.04    158
49.06    144
49.08    239
49.1     415
49.12    590
49.14    688
49.16    810
49.18    854
49.2     841
49.22    687
49.24    459
49.26    368
49.28    305
49.3     295
49.32    354
49.34    412
49.36    568
49.38    643
49.4     664
49.42    546
49.44    506
49.46    527
49.48    474
49.5     439
49.52    444
49.54    393
49.56    447
49.58    427
49.6     373
49.62    306
49.64    414
49.66    469
49.68    477
49.7     482
49.72    469
49.74    465
49.76    558
49.78    538
49.8     580
49.82    605
49.84    688
49.86    662
49.88    618
49.9     597
49.92    511
49.94    446
49.96    428
49.98    341
50.0     382
50.02    413
50.04    485
50.06    515
50.08    553
50.1     557
50.12    507
50.14    520
50.16    533
50.18    476
50.2     483
50.22    533
50.24    581
50.26    584
50.28    536
50.3     418
50.32    389
50.34    427
50.36    368
50.38    352
50.4     375
50.42    444
50.44    535
50.46    513
50.48    507
50.5     515
50.52    566
50.54    620
50.56    593
50.58    566
50.6     544
50.62    529
50.64    521
50.66    406
50.68    361
50.7     395
50.72    394
50.74    419
50.76    423
50.78    430
50.8     540
50.82    586
50.84    566
50.86    481
50.88    445
50.9     460
50.92    404
50.94    398
50.96    467
50.98    595
51.0     715
51.02    731
51.04    711
51.06    684
51.08    623
51.1     541
51.12    396
51.14    328
51.16    314
51.18    319
51.2     370
51.22    411
51.24    437
51.26    531
51.28    603
51.3     662
51.32    706
51.34    694
51.36    642
51.38    617
51.4     572
51.42    492
51.44    386
51.46    391
51.48    441
51.5     479
51.52    537
51.54    432
51.56    419
51.58    467
51.6     425
51.62    422
51.64    432
51.66    486
51.68    588
51.7     621
51.72    631
51.74    588
51.76    643
51.78    692
51.8     649
51.82    567
51.84    544
51.86    496
51.88    506
51.9     487
51.92    501
51.94    492
51.96    543
51.98    564
52.0     598
52.02    523
52.04    471
52.06    431
52.08    466
52.1     471
52.12    511
52.14    461
52.16    581
52.18    653
52.2     747
52.22    709
52.24    698
52.26    674
52.28    636
52.3     526
52.32    510
52.34    420
52.36    482
52.38    485
52.4     524
52.42    567
52.44    685
52.46    711
52.48    722
52.5     739
52.52    762
52.54    672
52.56    598
52.58    510
52.6     505
52.62    490
52.64    496
52.66    483
52.68    520
52.7     599
52.72    605
52.74    576
52.76    582
52.78    622
52.8     617
52.82    574
52.84    551
52.86    549
52.88    625
52.9     706
52.92    724
52.94    800
52.96    831
52.98    886
53.0     871
53.02    818
53.04    767
53.06    721
53.08    691
53.1     674
53.12    676
53.14    700
53.16    744
53.18    897
53.2     1064
53.22    1221
53.24    1386
53.26    1497
53.28    1697
53.3     1889
53.32    2154
53.34    2465
53.36    2978
53.38    3601
53.4     4443
53.42    5301
53.44    6227
53.46    6965
53.48    7445
53.5     7473
53.52    7188
53.54    6516
53.56    5687
53.58    4757
53.6     3893
53.62    3137
53.64    2649
53.66    2198
53.68    1822
53.7     1575
53.72    1356
53.74    1168
53.76    1027
53.78    968
53.8     906
53.82    848
53.84    776
53.86    742
53.88    768
53.9     830
53.92    816
53.94    827
53.96    823
53.98    849
54.0     823
54.02    725
54.04    595
54.06    576
54.08    526
54.1     510
54.12    464
54.14    448
54.16    493
54.18    551
54.2     560
54.22    568
54.24    537
54.26    591
54.28    572
54.3     569
54.32    563
54.34    558
54.36    616
54.38    647
54.4     632
54.42    609
54.44    593
54.46    612
54.48    538
54.5     460
54.52    448
54.54    465
54.56    492
54.58    505
54.6     507
54.62    529
54.64    563
54.66    580
54.68    542
54.7     506
54.72    511
54.74    565
54.76    536
54.78    543
54.8     545
54.82    629
54.84    629
54.86    653
54.88    593
54.9     482
54.92    448
54.94    421
54.96    330
54.98    250
55.0     270
55.02    315
55.04    365
55.06    398
55.08    429
55.1     448
55.12    575
55.14    620
55.16    561
55.18    435
55.2     477
55.22    459
55.24    431
55.26    380
55.28    390
55.3     419
55.32    522
55.34    529
55.36    475
55.38    538
55.4     696
55.42    718
55.44    726
55.46    686
55.48    667
55.5     627
55.52    606
55.54    510
55.56    471
55.58    505
55.6     541
55.62    516
55.64    521
55.66    517
55.68    519
55.7     475
55.72    443
55.74    431
55.76    448
55.78    427
55.8     393
55.82    363
55.84    357
55.86    397
55.88    431
55.9     414
55.92    420
55.94    523
55.96    547
55.98    556
56.0     524
56.02    499
56.04    471
56.06    502
56.08    547
56.1     490
56.12    471
56.14    503
56.16    501
56.18    497
56.2     483
56.22    416
56.24    437
56.26    497
56.28    493
56.3     447
56.32    449
56.34    475
56.36    459
56.38    483
56.4     495
56.42    517
56.44    608
56.46    655
56.48    654
56.5     681
56.52    775
56.54    743
56.56    719
56.58    684
56.6     565
56.62    494
56.64    362
56.66    352
56.68    315
56.7     366
56.72    470
56.74    480
56.76    566
56.78    565
56.8     545
56.82    519
56.84    516
56.86    577
56.88    574
56.9     641
56.92    681
56.94    725
56.96    778
56.98    758
57.0     713
57.02    660
57.04    657
57.06    597
57.08    586
57.1     564
57.12    573
57.14    593
57.16    609
57.18    660
57.2     634
57.22    603
57.24    624
57.26    581
57.28    536
57.3     474
57.32    513
57.34    429
57.36    457
57.38    533
57.4     519
57.42    573
57.44    685
57.46    671
57.48    701
57.5     729
57.52    763
57.54    672
57.56    693
57.58    671
57.6     670
57.62    737
57.64    750
57.66    698
57.68    715
57.7     716
57.72    709
57.74    729
57.76    825
57.78    879
57.8     977
57.82    1099
57.84    1131
57.86    1150
57.88    1274
57.9     1314
57.92    1348
57.94    1437
57.96    1572
57.98    1754
58.0     1934
58.02    2181
58.04    2373
58.06    2623
58.08    3023
58.1     3421
58.12    3973
58.14    4754
58.16    5750
58.18    7083
58.2     8835
58.22    10901
58.24    13073
58.26    15094
58.28    16624
58.3     17382
58.32    17249
58.34    16292
58.36    14512
58.38    12369
58.4     10216
58.42    8211
58.44    6605
58.46    5275
58.48    4196
58.5     3375
58.52    2825
58.54    2441
58.56    2124
58.58    1901
58.6     1725
58.62    1640
58.64    1612
58.66    1567
58.68    1498
58.7     1407
58.72    1385
58.74    1244
58.76    1115
58.78    1019
58.8     857
58.82    747
58.84    693
58.86    674
58.88    684
58.9     707
58.92    766
58.94    734
58.96    798
58.98    841
59.0     798
59.02    800
59.04    824
59.06    726
59.08    644
59.1     620
59.12    573
59.14    524
59.16    554
59.18    548
59.2     555
59.22    675
59.24    766
59.26    680
59.28    609
59.3     673
59.32    593
59.34    569
59.36    605
59.38    595
59.4     603
59.42    691
59.44    681
59.46    601
59.48    546
59.5     547
59.52    434
59.54    450
59.56    461
59.58    456
59.6     452
59.62    481
59.64    527
59.66    540
59.68    515
59.7     512
59.72    515
59.74    469
59.76    456
59.78    460
59.8     446
59.82    481
59.84    503
59.86    549
59.88    556
59.9     653
59.92    701
59.94    681
59.96    699
59.98    701
60.0     650
60.02    556
60.04    508
60.06    474
60.08    467
60.1     541
60.12    573
60.14    631
60.16    672
60.18    688
60.2     680
60.22    682
60.24    631
60.26    540
60.28    553
60.3     528
60.32    495
60.34    532
60.36    563
60.38    514
60.4     571
60.42    548
60.44    460
60.46    461
60.48    478
60.5     455
60.52    462
60.54    494
60.56    554
60.58    597
60.6     711
60.62    703
60.64    701
60.66    685
60.68    607
60.7     558
60.72    494
60.74    391
60.76    348
60.78    348
60.8     397
60.82    470
60.84    526
60.86    546
60.88    542
60.9     577
60.92    523
60.94    457
60.96    452
60.98    458
61.0     457
61.02    506
61.04    564
61.06    589
61.08    615
61.1     620
61.12    523
61.14    451
61.16    497
61.18    497
61.2     431
61.22    458
61.24    548
61.26    514
61.28    570
61.3     587
61.32    576
61.34    606
61.36    657
61.38    666
61.4     605
61.42    665
61.44    650
61.46    603
61.48    620
61.5     572
61.52    559
61.54    590
61.56    518
61.58    482
61.6     426
61.62    460
61.64    516
61.66    682
61.68    803
61.7     908
61.72    990
61.74    1134
61.76    1173
61.78    1159
61.8     1111
61.82    1049
61.84    1093
61.86    1104
61.88    1177
61.9     1255
61.92    1398
61.94    1692
61.96    2101
61.98    2596
62.0     3228
62.02    4129
62.04    5368
62.06    7007
62.08    9227
62.1     11829
62.12    14596
62.14    17142
62.16    19098
62.18    19970
62.2     19593
62.22    18127
62.24    15749
62.26    12961
62.28    10219
62.3     7920
62.32    6066
62.34    4690
62.36    3780
62.38    3137
62.4     2660
62.42    2276
62.44    1952
62.46    1638
62.48    1426
62.5     1303
62.52    1154
62.54    1028
62.56    978
62.58    947
62.6     894
62.62    876
62.64    885
62.66    820
62.68    828
62.7     785
62.72    725
62.74    723
62.76    712
62.78    701
62.8     635
62.82    654
62.84    657
62.86    626
62.88    665
62.9     595
62.92    563
62.94    547
62.96    555
62.98    582
63.0     614
63.02    671
63.04    681
63.06    693
63.08    697
63.1     615
63.12    563
63.14    479
63.16    475
63.18    439
63.2     413
63.22    413
63.24    429
63.26    531
63.28    603
63.3     621
63.32    615
63.34    580
63.36    588
63.38    541
63.4     534
63.42    567
63.44    490
63.46    497
63.48    515
63.5     497
63.52    491
63.54    462
63.56    496
63.58    518
63.6     552
63.62    620
63.64    576
63.66    548
63.68    562
63.7     520
63.72    509
63.74    429
63.76    427
63.78    451
63.8     448
63.82    525
63.84    559
63.86    519
63.88    564
63.9     573
63.92    572
63.94    524
63.96    549
63.98    576
64.0     562
64.02    565
64.04    616
64.06    605
64.08    592
64.1     551
64.12    518
64.14    488
64.16    423
64.18    399
64.2     417
64.22    396
64.24    458
64.26    525
64.28    555
64.3     553
64.32    597
64.34    618
64.36    582
64.38    576
64.4     568
64.42    558
64.44    553
64.46    641
64.48    675
64.5     709
64.52    797
64.54    793
64.56    824
64.58    897
64.6     936
64.62    1063
64.64    1164
64.66    1405
64.68    1581
64.7     1850
64.72    2232
64.74    2592
64.76    3062
64.78    3603
64.8     4081
64.82    4547
64.84    4867
64.86    5012
64.88    4772
64.9     4378
64.92    3884
64.94    3323
64.96    2748
64.98    2252
65.0     1814
65.02    1533
65.04    1351
65.06    1227
65.08    1093
65.1     999
65.12    926
65.14    882
65.16    821
65.18    704
65.2     602
65.22    591
65.24    556
65.26    535
65.28    608
65.3     616
65.32    645
65.34    650
65.36    675
65.38    649
65.4     612
65.42    603
65.44    592
65.46    594
65.48    638
65.5     646
65.52    619
65.54    566
65.56    560
65.58    550
65.6     528
65.62    470
65.64    440
65.66    454
65.68    424
65.7     467
65.72    416
65.74    366
65.76    358
65.78    333
65.8     404
65.82    368
65.84    427
65.86    501
65.88    485
65.9     526
65.92    504
65.94    467
65.96    446
65.98    412
66.0     483
66.02    516
66.04    571
66.06    523
66.08    466
66.1     402
66.12    357
66.14    363
66.16    339
66.18    361
66.2     409
66.22    458
66.24    510
66.26    460
66.28    430
66.3     399
66.32    343
66.34    382
66.36    355
66.38    398
66.4     409
66.42    399
66.44    454
66.46    439
66.48    409
66.5     394
66.52    307
66.54    344
66.56    308
66.58    381
66.6     404
66.62    393
66.64    412
66.66    458
66.68    472
66.7     505
66.72    512
66.74    586
66.76    579
66.78    643
66.8     638
66.82    607
66.84    571
66.86    511
66.88    411
66.9     294
66.92    253
66.94    244
66.96    154
66.98    213
67.0     230
67.02    262
67.04    350
67.06    357
67.08    412
67.1     419
67.12    466
67.14    544
67.16    539
67.18    569
67.2     501
67.22    492
67.24    484
67.26    432
67.28    406
67.3     324
67.32    275
67.34    291
67.36    284
67.38    276
67.4     281
67.42    362
67.44    398
67.46    416
67.48    490
67.5     516
67.52    566
67.54    586
67.56    609
67.58    601
67.6     547
67.62    533
67.64    520
67.66    487
67.68    519
67.7     565
67.72    579
67.74    525
67.76    460
67.78    435
67.8     364
67.82    329
67.84    347
67.86    366
67.88    339
67.9     453
67.92    450
67.94    436
67.96    421
67.98    425
68.0     392
68.02    422
68.04    428
68.06    429
68.08    349
68.1     393
68.12    390
68.14    389
68.16    355
68.18    383
68.2     440
68.22    519
68.24    483
68.26    492
68.28    516
68.3     533
68.32    568
68.34    553
68.36    529
68.38    562
68.4     513
68.42    475
68.44    370
68.46    363
68.48    362
68.5     309
68.52    379
68.54    402
68.56    419
68.58    503
68.6     546
68.62    637
68.64    720
68.66    771
68.68    784
68.7     824
68.72    877
68.74    901
68.76    912
68.78    982
68.8     1077
68.82    1168
68.84    1353
68.86    1537
68.88    1878
68.9     2342
68.92    2840
68.94    3400
68.96    3864
68.98    4266
69.0     4523
69.02    4507
69.04    4389
69.06    4045
69.08    3596
69.1     3142
69.12    2676
69.14    2220
69.16    1860
69.18    1553
69.2     1329
69.22    1108
69.24    982
69.26    908
69.28    886
69.3     875
69.32    841
69.34    791
69.36    755
69.38    700
69.4     665
69.42    560
69.44    527
69.46    528
69.48    506
69.5     478
69.52    495
69.54    496
69.56    490
69.58    486
69.6     490
69.62    487
69.64    541
69.66    545
69.68    578
69.7     579
69.72    552
69.74    525
69.76    488
69.78    448
69.8     399
69.82    406
69.84    449
69.86    464
69.88    490
69.9     477
69.92    519
69.94    548
69.96    549
69.98    544
70.0     490
70.02    531
70.04    564
70.06    550
70.08    560
70.1     609
70.12    564
70.14    464
70.16    419
70.18    439
70.2     444
70.22    514
70.24    604
70.26    609
70.28    651
70.3     683
70.32    655
70.34    706
70.36    802
70.38    880
70.4     960
70.42    1059
70.44    1076
70.46    1075
70.48    1169
70.5     1296
70.52    1440
70.54    1639
70.56    1805
70.58    1948
70.6     2113
70.62    2187
70.64    2149
70.66    2076
70.68    1895
70.7     1711
70.72    1506
70.74    1318
70.76    1130
70.78    1008
70.8     897
70.82    819
70.84    756
70.86    726
70.88    661
70.9     671
70.92    628
70.94    564
70.96    578
70.98    522
71.0     514
71.02    507
71.04    547
71.06    593
71.08    577
71.1     560
71.12    523
71.14    535
71.16    552
71.18    489
71.2     547
71.22    541
71.24    531
71.26    490
71.28    452
71.3     428
71.32    423
71.34    385
71.36    361
71.38    398
71.4     398
71.42    428
71.44    429
71.46    458
71.48    508
71.5     482
71.52    456
71.54    409
71.56    451
71.58    429
71.6     379
71.62    382
71.64    375
71.66    411
71.68    436
71.7     422
71.72    431
71.74    491
71.76    548
71.78    548
71.8     558
71.82    542
71.84    549
71.86    508
71.88    515
71.9     480
71.92    475
71.94    482
71.96    501
71.98    476
72.0     482
72.02    494
72.04    548
72.06    569
72.08    621
72.1     629
72.12    662
72.14    638
72.16    681
72.18    668
72.2     722
72.22    795
72.24    860
72.26    886
72.28    892
72.3     922
72.32    1017
72.34    1139
72.36    1294
72.38    1484
72.4     1756
72.42    2097
72.44    2510
72.46    3014
72.48    3609
72.5     4266
72.52    4877
72.54    5348
72.56    5577
72.58    5602
72.6     5421
72.62    5034
72.64    4516
72.66    3903
72.68    3390
72.7     2862
72.72    2350
72.74    1968
72.76    1701
72.78    1478
72.8     1284
72.82    1173
72.84    997
72.86    897
72.88    852
72.9     769
72.92    732
72.94    770
72.96    809
72.98    749
73.0     653
73.02    688
73.04    609
73.06    611
73.08    564
73.1     577
73.12    580
73.14    574
73.16    592
73.18    591
73.2     614
73.22    674
73.24    662
73.26    660
73.28    614
73.3     629
73.32    551
73.34    552
73.36    654
73.38    769
73.4     900
73.42    1007
73.44    1111
73.46    1246
73.48    1361
73.5     1364
73.52    1273
73.54    1242
73.56    1149
73.58    1019
73.6     851
73.62    705
73.64    627
73.66    601
73.68    527
73.7     454
73.72    462
73.74    484
73.76    536
73.78    545
73.8     553
73.82    612
73.84    718
73.86    811
73.88    802
73.9     805
73.92    782
73.94    752
73.96    733
73.98    638
74.0     619
74.02    613
74.04    539
74.06    520
74.08    439
74.1     466
74.12    569
74.14    755
74.16    865
74.18    1042
74.2     1285
74.22    1553
74.24    1794
74.26    2155
74.28    2428
74.3     2741
74.32    2853
74.34    2823
74.36    2606
74.38    2357
74.4     2096
74.42    1835
74.44    1598
74.46    1431
74.48    1261
74.5     1190
74.52    1016
74.54    927
74.56    877
74.58    881
74.6     934
74.62    931
74.64    935
74.66    942
74.68    986
74.7     1074
74.72    1127
74.74    1263
74.76    1404
74.78    1577
74.8     1755
74.82    1912
74.84    2067
74.86    2214
74.88    2273
74.9     2276
74.92    2187
74.94    2098
74.96    1971
74.98    1778
75.0     1554
75.02    1353
75.04    1210
75.06    1082
75.08    974
75.1     862
75.12    804
75.14    807
75.16    742
75.18    619
75.2     517
75.22    444
75.24    440
75.26    440
75.28    527
75.3     540
75.32    611
75.34    652
75.36    651
75.38    632
75.4     671
75.42    669
75.44    656
75.46    623
75.48    530
75.5     425
75.52    299
75.54    260
75.56    294
75.58    285
75.6     362
75.62    357
75.64    342
75.66    381
75.68    336
75.7     397
75.72    382
75.74    466
75.76    498
75.78    474
75.8     550
75.82    483
75.84    471
75.86    515
75.88    486
75.9     523
75.92    465
75.94    500
75.96    436
75.98    454
76.0     493
76.02    439
76.04    458
76.06    446
76.08    352
76.1     367
76.12    271
76.14    316
76.16    296
76.18    349
76.2     359
76.22    388
76.24    390
76.26    296
76.28    269
76.3     292
76.32    246
76.34    351
76.36    357
76.38    431
76.4     518
76.42    554
76.44    524
76.46    467
76.48    484
76.5     475
76.52    450
76.54    478
76.56    387
76.58    352
76.6     327
76.62    262
76.64    227
76.66    234
76.68    236
76.7     318
76.72    337
76.74    354
76.76    356
76.78    344
76.8     405
76.82    476
76.84    541
76.86    575
76.88    548
76.9     553
76.92    539
76.94    499
76.96    544
76.98    514
77.0     576
77.02    644
77.04    593
77.06    569
77.08    476
77.1     432
77.12    448
77.14    425
77.16    432
77.18    466
77.2     603
77.22    701
77.24    667
77.26    742
77.28    776
77.3     912
77.32    1009
77.34    1132
77.36    1280
77.38    1537
77.4     1852
77.42    2062
77.44    2281
77.46    2648
77.48    3089
77.5     3697
77.52    4228
77.54    4840
77.56    5415
77.58    5887
77.6     6163
77.62    6122
77.64    5822
77.66    5392
77.68    4835
77.7     4218
77.72    3550
77.74    2986
77.76    2540
77.78    2233
77.8     1950
77.82    1747
77.84    1525
77.86    1392
77.88    1277
77.9     1132
77.92    1057
77.94    985
77.96    947
77.98    957
78.0     826
78.02    800
78.04    724
78.06    591
78.08    558
78.1     487
78.12    497
78.14    512
78.16    519
78.18    517
78.2     447
78.22    488
78.24    511
78.26    472
78.28    454
78.3     381
78.32    414
78.34    433
78.36    375
78.38    358
78.4     347
78.42    378
78.44    373
78.46    335
78.48    243
78.5     280
78.52    323
78.54    384
78.56    362
78.58    379
78.6     370
78.62    334
78.64    305
78.66    315
78.68    335
78.7     411
78.72    455
78.74    454
78.76    419
78.78    358
78.8     343
78.82    338
78.84    380
78.86    403
78.88    416
78.9     425
78.92    399
78.94    319
78.96    336
78.98    344
79.0     406
79.02    433
79.04    456
79.06    411
79.08    376
79.1     366
79.12    324
79.14    322
79.16    317
79.18    364
79.2     342
79.22    302
79.24    248
79.26    224
79.28    248
79.3     310
79.32    312
79.34    304
79.36    277
79.38    323
79.4     332
79.42    322
79.44    336
79.46    383
79.48    430
79.5     468
79.52    449
79.54    443
79.56    404
79.58    437
79.6     463
79.62    397
79.64    389
79.66    345
79.68    320
79.7     308
79.72    313
79.74    322
79.76    298
79.78    269
79.8     256
79.82    274
79.84    316
79.86    341
79.88    418
79.9     476
79.92    523
79.94    571
79.96    548
79.98    523
80.0     541
80.02    633
80.04    701
80.06    685
80.08    683
80.1     615
80.12    541
80.14    505
80.16    455
80.18    458
80.2     417
80.22    462
80.24    434
80.26    357
80.28    229
80.3     162
80.32    219
80.34    262
80.36    314
80.38    371
80.4     366
80.42    369
80.44    318
80.46    275
80.48    211
80.5     261
80.52    424
80.54    436
80.56    459
80.58    462
80.6     452
80.62    402
80.64    384
80.66    352
80.68    340
80.7     323
80.72    370
80.74    313
80.76    258
80.78    195
80.8     169
80.82    151
80.84    158
80.86    252
80.88    299
80.9     370
80.92    429
80.94    481
80.96    447
80.98    437
81.0     442
81.02    432
81.04    410
81.06    459
81.08    436
81.1     383
81.12    334
81.14    265
81.16    218
81.18    220
81.2     233
81.22    238
81.24    265
81.26    311
81.28    359
81.3     369
81.32    403
81.34    395
81.36    449
81.38    412
81.4     392
81.42    344
81.44    322
81.46    341
81.48    297
81.5     268
81.52    225
81.54    233
81.56    261
81.58    246
81.6     263
81.62    258
81.64    314
81.66    352
81.68    302
81.7     231
81.72    301
81.74    324
81.76    342
81.78    340
81.8     370
81.82    341
81.84    320
81.86    238
81.88    209
81.9     165
81.92    279
81.94    228
81.96    190
81.98    226
82.0     306
82.02    329
82.04    313
82.06    339
82.08    394
82.1     397
82.12    429
82.14    425
82.16    335
82.18    323
82.2     371
82.22    325
82.24    277
82.26    224
82.28    212
82.3     226
82.32    274
82.34    291
82.36    276
82.38    288
82.4     301
82.42    238
82.44    224
82.46    174
82.48    228
82.5     292
82.52    318
82.54    325
82.56    330
82.58    313
82.6     292
82.62    264
82.64    241
82.66    285
82.68    332
82.7     340
82.72    355
82.74    333
82.76    291
82.78    273
82.8     253
82.82    218
82.84    235
82.86    253
82.88    300
82.9     315
82.92    325
82.94    312
82.96    348
82.98    352
83.0     357
83.02    344
83.04    397
83.06    419
83.08    497
83.1     482
83.12    397
83.14    338
83.16    340
83.18    310
83.2     239
83.22    203
83.24    251
83.26    270
83.28    267
83.3     246
83.32    228
83.34    174
83.36    204
83.38    199
83.4     249
83.42    261
83.44    302
83.46    334
83.48    343
83.5     345
83.52    328
83.54    271
83.56    269
83.58    255
83.6     363
83.62    352
83.64    390
83.66    421
83.68    414
83.7     347
83.72    318
83.74    320
83.76    284
83.78    252
83.8     310
83.82    334
83.84    325
83.86    330
83.88    340
83.9     325
83.92    330
83.94    320
83.96    309
83.98    281
84.0     249
84.02    237
84.04    214
84.06    178
84.08    129
84.1     147
84.12    145
84.14    101
84.16    160
84.18    192
84.2     195
84.22    291
84.24    304
84.26    325
84.28    308
84.3     326
84.32    299
84.34    272
84.36    336
84.38    351
84.4     371
84.42    391
84.44    360
84.46    388
84.48    307
84.5     319
84.52    264
84.54    326
84.56    397
84.58    448
84.6     498
84.62    443
84.64    442
84.66    474
84.68    452
84.7     440
84.72    352
84.74    420
84.76    480
84.78    543
84.8     545
84.82    451
84.84    419
84.86    401
84.88    378
84.9     298
84.92    270
84.94    328
84.96    351
84.98    450
85.0     419
85.02    378
85.04    357
85.06    375
85.08    410
85.1     351
85.12    320
85.14    292
85.16    291
85.18    317
85.2     193
85.22    167
85.24    55
85.26    62
85.28    18
85.3     0
85.32    21
85.34    18
85.36    108
85.38    178
85.4     230
85.42    298
85.44    280
85.46    349
85.48    374
85.5     422
85.52    411
85.54    360
85.56    323
85.58    263
85.6     271
85.62    278
85.64    303
85.66    310
85.68    319
85.7     322
85.72    333
85.74    282
85.76    188
85.78    130
85.8     194
85.82    292
85.84    378
85.86    408
85.88    445
85.9     385
85.92    385
85.94    334
85.96    299
85.98    299
86.0     350
86.02    430
86.04    452
86.06    445
86.08    422
86.1     350
86.12    388
86.14    434
86.16    468
86.18    461
86.2     452
86.22    497
86.24    471
86.26    516
86.28    567
86.3     664
86.32    762
86.34    874
86.36    960
86.38    1066
86.4     1088
86.42    1114
86.44    1067
86.46    1091
86.48    1023
86.5     1015
86.52    931
86.54    866
86.56    852
86.58    908
86.6     847
86.62    785
86.64    711
86.66    657
86.68    640
86.7     670
86.72    595
86.74    562
86.76    598
86.78    603
86.8     568
86.82    487
86.84    445
86.86    401
86.88    415
86.9     422
86.92    351
86.94    404
86.96    381
86.98    338
87.0     339
87.02    322
87.04    297
87.06    276
87.08    274
87.1     277
87.12    236
87.14    264
87.16    218
87.18    190
87.2     231
87.22    214
87.24    208
87.26    197
87.28    201
87.3     169
87.32    128
87.34    101
87.36    136
87.38    161
87.4     243
87.42    303
87.44    389
87.46    432
87.48    455
87.5     412
87.52    410
87.54    348
87.56    370
87.58    362
87.6     356
87.62    419
87.64    393
87.66    446
87.68    359
87.7     352
87.72    361
87.74    283
87.76    315
87.78    314
87.8     295
87.82    299
87.84    283
87.86    353
87.88    277
87.9     289
87.92    277
87.94    227
87.96    292
87.98    314
88.0     316
88.02    356
88.04    389
88.06    441
88.08    369
88.1     291
88.12    224
88.14    203
88.16    208
88.18    193
88.2     205
88.22    212
88.24    191
88.26    205
88.28    163
88.3     128
88.32    193
88.34    187
88.36    217
88.38    263
88.4     290
88.42    288
88.44    239
88.46    231
88.48    262
88.5     288
88.52    356
88.54    343
88.56    397
88.58    472
88.6     468
88.62    498
88.64    453
88.66    394
88.68    430
88.7     405
88.72    405
88.74    400
88.76    302
88.78    313
88.8     255
88.82    252
88.84    192
88.86    99
88.88    117
88.9     157
88.92    229
88.94    282
88.96    249
88.98    326
89.0     361
89.02    390
89.04    457
89.06    428
89.08    402
89.1     448
89.12    446
89.14    471
89.16    369
89.18    336
89.2     274
89.22    281
89.24    349
89.26    312
89.28    320
89.3     375
89.32    380
89.34    450
89.36    422
89.38    447
89.4     431
89.42    370
89.44    396
89.46    322
89.48    307
89.5     248
89.52    174
89.54    200
89.56    204
89.58    294
89.6     319
89.62    352
89.64    388
89.66    362
89.68    318
89.7     269
89.72    244
89.74    306
89.76    284
89.78    358
89.8     496
89.82    577
89.84    574
89.86    532
89.88    483
89.9     459
89.92    476
89.94    434
89.96    544
89.98    568
90.0     583
