?
5.0      919
5.02     919
5.04     1195
5.06     1100
5.08     1121
5.1      1127
5.12     1098
5.14     1109
5.16     1090
5.18     1104
5.2      1119
5.22     1093
5.24     1138
5.26     1163
5.28     1122
5.3      1113
5.32     1108
5.34     1101
5.36     1087
5.38     1116
5.4      1092
5.42     1111
5.44     1165
5.46     1164
5.48     1161
5.5      1143
5.52     1162
5.54     1114
5.56     1122
5.58     1114
5.6      1089
5.62     1135
5.64     1152
5.66     1183
5.68     1203
5.7      1203
5.72     1221
5.74     1200
5.76     1190
5.78     1143
5.8      1146
5.82     1115
5.84     1126
5.86     1128
5.88     1147
5.9      1183
5.92     1168
5.94     1212
5.96     1198
5.98     1208
6.0      1197
6.02     1176
6.04     1240
6.06     1185
6.08     1198
6.1      1160
6.12     1123
6.14     1134
6.16     1108
6.18     1092
6.2      1086
6.22     1113
6.24     1192
6.26     1167
6.28     1216
6.3      1204
6.32     1221
6.34     1233
6.36     1225
6.38     1226
6.4      1220
6.42     1244
6.44     1260
6.46     1252
6.48     1220
6.5      1164
6.52     1154
6.54     1143
6.56     1141
6.58     1132
6.6      1149
6.62     1183
6.64     1166
6.66     1207
6.68     1162
6.7      1133
6.72     1162
6.74     1142
6.76     1160
6.78     1154
6.8      1239
6.82     1230
6.84     1201
6.86     1207
6.88     1177
6.9      1162
6.92     1166
6.94     1165
6.96     1175
6.98     1242
7.0      1274
7.02     1263
7.04     1247
7.06     1250
7.08     1231
7.1      1224
7.12     1193
7.14     1172
7.16     1144
7.18     1158
7.2      1116
7.22     1158
7.24     1173
7.26     1208
7.28     1206
7.3      1204
7.32     1231
7.34     1198
7.36     1229
7.38     1207
7.4      1202
7.42     1237
7.44     1271
7.46     1282
7.48     1257
7.5      1264
7.52     1287
7.54     1321
7.56     1340
7.58     1327
7.6      1329
7.62     1349
7.64     1326
7.66     1294
7.68     1252
7.7      1286
7.72     1247
7.74     1267
7.76     1230
7.78     1207
7.8      1193
7.82     1223
7.84     1150
7.86     1203
7.88     1153
7.9      1220
7.92     1177
7.94     1186
7.96     1184
7.98     1180
8.0      1201
8.02     1202
8.04     1178
8.06     1191
8.08     1157
8.1      1183
8.12     1148
8.14     1169
8.16     1201
8.18     1189
8.2      1187
8.22     1180
8.24     1188
8.26     1216
8.28     1245
8.3      1277
8.32     1277
8.34     1252
8.36     1235
8.38     1188
8.4      1205
8.42     1186
8.44     1160
8.46     1222
8.48     1224
8.5      1189
8.52     1206
8.54     1141
8.56     1159
8.58     1152
8.6      1141
8.62     1117
8.64     1105
8.66     1152
8.68     1110
8.7      1082
8.72     1130
8.74     1148
8.76     1160
8.78     1183
8.8      1164
8.82     1185
8.84     1230
8.86     1245
8.88     1254
8.9      1211
8.92     1235
8.94     1158
8.96     1125
8.98     1187
9.0      1173
9.02     1258
9.04     1285
9.06     1330
9.08     1355
9.1      1303
9.12     1335
9.14     1160
9.16     1131
9.18     1117
9.2      1112
9.22     1083
9.24     1054
9.26     1057
9.28     1029
9.3      1021
9.32     1044
9.34     1032
9.36     1052
9.38     1034
9.4      1093
9.42     1031
9.44     1079
9.46     1037
9.48     1040
9.5      1059
9.52     1058
9.54     1088
9.56     1063
9.58     991
9.6      1041
9.62     1012
9.64     1026
9.66     1036
9.68     1060
9.7      1054
9.72     1014
9.74     997
9.76     1020
9.78     1001
9.8      998
9.82     979
9.84     988
9.86     988
9.88     973
9.9      934
9.92     887
9.94     875
9.96     891
9.98     897
10.0     818
10.02    878
10.04    907
10.06    917
10.08    958
10.1     952
10.12    937
10.14    911
10.16    930
10.18    873
10.2     841
10.22    888
10.24    871
10.26    894
10.28    891
10.3     859
10.32    863
10.34    849
10.36    863
10.38    824
10.4     899
10.42    904
10.44    915
10.46    906
10.48    872
10.5     883
10.52    915
10.54    916
10.56    871
10.58    872
10.6     866
10.62    818
10.64    845
10.66    832
10.68    815
10.7     871
10.72    933
10.74    984
10.76    927
10.78    927
10.8     917
10.82    924
10.84    933
10.86    938
10.88    909
10.9     891
10.92    970
10.94    1003
10.96    960
10.98    984
11.0     968
11.02    976
11.04    945
11.06    965
11.08    918
11.1     842
11.12    855
11.14    815
11.16    792
11.18    780
11.2     771
11.22    787
11.24    860
11.26    891
11.28    917
11.3     944
11.32    982
11.34    1022
11.36    1022
11.38    1010
11.4     967
11.42    913
11.44    876
11.46    802
11.48    809
11.5     857
11.52    904
11.54    960
11.56    928
11.58    980
11.6     922
11.62    888
11.64    847
11.66    814
11.68    877
11.7     931
11.72    962
11.74    1000
11.76    923
11.78    998
11.8     992
11.82    987
11.84    1023
11.86    1055
11.88    1076
11.9     1081
11.92    1053
11.94    1017
11.96    907
11.98    953
12.0     944
12.02    920
12.04    998
12.06    1020
12.08    1034
12.1     1059
12.12    1060
12.14    1070
12.16    1037
12.18    1063
12.2     1023
12.22    1009
12.24    1030
12.26    1026
12.28    1006
12.3     1030
12.32    1073
12.34    1062
12.36    1098
12.38    1085
12.4     999
12.42    960
12.44    953
12.46    922
12.48    895
12.5     939
12.52    960
12.54    987
12.56    992
12.58    943
12.6     913
12.62    908
12.64    931
12.66    959
12.68    1010
12.7     1013
12.72    1054
12.74    1124
12.76    1075
12.78    1072
12.8     1069
12.82    1021
12.84    1039
12.86    1073
12.88    1048
12.9     1000
12.92    1027
12.94    1009
12.96    939
12.98    927
13.0     941
13.02    919
13.04    978
13.06    1031
13.08    1047
13.1     1032
13.12    1031
13.14    957
13.16    925
13.18    981
13.2     1006
13.22    1005
13.24    1045
13.26    1057
13.28    1064
13.3     1038
13.32    1010
13.34    969
13.36    1027
13.38    1074
13.4     1043
13.42    1103
13.44    1129
13.46    1143
13.48    1172
13.5     1168
13.52    1129
13.54    1142
13.56    1166
13.58    1106
13.6     1085
13.62    1086
13.64    1093
13.66    1133
13.68    1118
13.7     1073
13.72    1046
13.74    1044
13.76    1012
13.78    979
13.8     986
13.82    993
13.84    1007
13.86    1018
13.88    1045
13.9     1039
13.92    1044
13.94    1058
13.96    1047
13.98    1078
14.0     1089
14.02    1087
14.04    1089
14.06    1154
14.08    1184
14.1     1129
14.12    1201
14.14    1204
14.16    1138
14.18    1120
14.2     1112
14.22    1069
14.24    1092
14.26    1059
14.28    1007
14.3     998
14.32    1062
14.34    1099
14.36    1068
14.38    1046
14.4     1135
14.42    1181
14.44    1199
14.46    1184
14.48    1153
14.5     1152
14.52    1187
14.54    1201
14.56    1116
14.58    1112
14.6     1154
14.62    1151
14.64    1142
14.66    1092
14.68    1053
14.7     1079
14.72    1129
14.74    1087
14.76    1091
14.78    1225
14.8     1228
14.82    1230
14.84    1337
14.86    1366
14.88    1426
14.9     1452
14.92    1476
14.94    1434
14.96    1356
14.98    1379
15.0     1296
15.02    1215
15.04    1206
15.06    1145
15.08    1098
15.1     1116
15.12    1178
15.14    1167
15.16    1136
15.18    1233
15.2     1223
15.22    1175
15.24    1187
15.26    1182
15.28    1154
15.3     1143
15.32    1166
15.34    1160
15.36    1116
15.38    1125
15.4     1080
15.42    1094
15.44    1166
15.46    1210
15.48    1247
15.5     1248
15.52    1279
15.54    1297
15.56    1284
15.58    1262
15.6     1216
15.62    1223
15.64    1226
15.66    1265
15.68    1271
15.7     1223
15.72    1200
15.74    1270
15.76    1338
15.78    1333
15.8     1302
15.82    1369
15.84    1404
15.86    1466
15.88    1525
15.9     1545
15.92    1556
15.94    1698
15.96    1792
15.98    1789
16.0     1834
16.02    1974
16.04    2073
16.06    2145
16.08    2257
16.1     2374
16.12    2460
16.14    2574
16.16    2753
16.18    2921
16.2     3208
16.22    3574
16.24    3940
16.26    4411
16.28    5051
16.3     5857
16.32    6765
16.34    7819
16.36    9196
16.38    10941
16.4     13122
16.42    15749
16.44    19172
16.46    23527
16.48    28644
16.5     34319
16.52    39996
16.54    44276
16.56    46182
16.58    45200
16.6     41320
16.62    35148
16.64    27945
16.66    20693
16.68    14364
16.7     9865
16.72    7194
16.74    5543
16.76    4558
16.78    3910
16.8     3393
16.82    2977
16.84    2698
16.86    2467
16.88    2244
16.9     2108
16.92    2021
16.94    1923
16.96    1899
16.98    1857
17.0     1758
17.02    1717
17.04    1704
17.06    1667
17.08    1599
17.1     1560
17.12    1544
17.14    1505
17.16    1487
17.18    1463
17.2     1448
17.22    1501
17.24    1476
17.26    1434
17.28    1325
17.3     1317
17.32    1264
17.34    1146
17.36    1094
17.38    1077
17.4     1103
17.42    1177
17.44    1194
17.46    1225
17.48    1161
17.5     1164
17.52    1147
17.54    1039
17.56    1052
17.58    1047
17.6     1069
17.62    1033
17.64    1025
17.66    1073
17.68    1077
17.7     1086
17.72    1064
17.74    1038
17.76    1061
17.78    1065
17.8     1011
17.82    906
17.84    972
17.86    1007
17.88    979
17.9     957
17.92    989
17.94    996
17.96    1015
17.98    1078
18.0     1063
18.02    990
18.04    997
18.06    930
18.08    836
18.1     771
18.12    799
18.14    815
18.16    905
18.18    971
18.2     1004
18.22    933
18.24    908
18.26    888
18.28    827
18.3     785
18.32    825
18.34    873
18.36    862
18.38    854
18.4     901
18.42    906
18.44    891
18.46    844
18.48    765
18.5     773
18.52    773
18.54    802
18.56    809
18.58    823
18.6     901
18.62    949
18.64    929
18.66    914
18.68    859
18.7     904
18.72    856
18.74    887
18.76    903
18.78    902
18.8     938
18.82    938
18.84    938
18.86    894
18.88    741
18.9     708
18.92    649
18.94    667
18.96    694
18.98    676
19.0     737
19.02    835
19.04    872
19.06    792
19.08    709
19.1     746
19.12    779
19.14    810
19.16    770
19.18    701
19.2     751
19.22    813
19.24    791
19.26    746
19.28    680
19.3     704
19.32    733
19.34    718
19.36    683
19.38    668
19.4     669
19.42    794
19.44    777
19.46    729
19.48    671
19.5     725
19.52    711
19.54    641
19.56    605
19.58    600
19.6     598
19.62    707
19.64    626
19.66    660
19.68    690
19.7     760
19.72    759
19.74    670
19.76    651
19.78    632
19.8     607
19.82    563
19.84    508
19.86    593
19.88    650
19.9     719
19.92    709
19.94    675
19.96    682
19.98    657
20.0     652
20.02    632
20.04    661
20.06    685
20.08    695
20.1     726
20.12    688
20.14    664
20.16    639
20.18    639
20.2     651
20.22    649
20.24    640
20.26    624
20.28    612
20.3     642
20.32    600
20.34    590
20.36    566
20.38    643
20.4     682
20.42    744
20.44    759
20.46    765
20.48    732
20.5     718
20.52    699
20.54    649
20.56    628
20.58    700
20.6     728
20.62    777
20.64    773
20.66    763
20.68    700
20.7     733
20.72    763
20.74    772
20.76    716
20.78    691
20.8     667
20.82    664
20.84    676
20.86    671
20.88    650
20.9     720
20.92    722
20.94    766
20.96    725
20.98    695
21.0     628
21.02    600
21.04    596
21.06    613
21.08    637
21.1     687
21.12    703
21.14    730
21.16    759
21.18    753
21.2     726
21.22    640
21.24    536
21.26    516
21.28    574
21.3     588
21.32    535
21.34    523
21.36    595
21.38    630
21.4     658
21.42    538
21.44    492
21.46    549
21.48    642
21.5     625
21.52    627
21.54    613
21.56    672
21.58    616
21.6     620
21.62    526
21.64    561
21.66    561
21.68    627
21.7     608
21.72    671
21.74    649
21.76    696
21.78    619
21.8     587
21.82    559
21.84    607
21.86    595
21.88    631
21.9     582
21.92    640
21.94    617
21.96    649
21.98    585
22.0     526
22.02    502
22.04    488
22.06    508
22.08    539
22.1     532
22.12    590
22.14    625
22.16    608
22.18    564
22.2     551
22.22    500
22.24    473
22.26    531
22.28    501
22.3     450
22.32    473
22.34    449
22.36    445
22.38    463
22.4     522
22.42    535
22.44    603
22.46    622
22.48    609
22.5     568
22.52    535
22.54    486
22.56    504
22.58    448
22.6     491
22.62    487
22.64    476
22.66    457
22.68    496
22.7     481
22.72    438
22.74    413
22.76    496
22.78    540
22.8     626
22.82    506
22.84    411
22.86    371
22.88    424
22.9     437
22.92    409
22.94    397
22.96    443
22.98    517
23.0     561
23.02    481
23.04    450
23.06    482
23.08    558
23.1     622
23.12    562
23.14    495
23.16    451
23.18    527
23.2     567
23.22    605
23.24    541
23.26    570
23.28    526
23.3     535
23.32    434
23.34    387
23.36    360
23.38    390
23.4     459
23.42    510
23.44    525
23.46    605
23.48    574
23.5     625
23.52    603
23.54    563
23.56    450
23.58    437
23.6     440
23.62    432
23.64    432
23.66    464
23.68    478
23.7     519
23.72    551
23.74    591
23.76    593
23.78    624
23.8     603
23.82    578
23.84    533
23.86    479
23.88    448
23.9     390
23.92    457
23.94    456
23.96    473
23.98    395
24.0     413
24.02    431
24.04    485
24.06    461
24.08    487
24.1     412
24.12    450
24.14    436
24.16    500
24.18    498
24.2     560
24.22    509
24.24    499
24.26    379
24.28    364
24.3     318
24.32    365
24.34    468
24.36    574
24.38    641
24.4     667
24.42    554
24.44    473
24.46    385
24.48    399
24.5     400
24.52    374
24.54    385
24.56    396
24.58    463
24.6     512
24.62    499
24.64    498
24.66    513
24.68    578
24.7     586
24.72    514
24.74    464
24.76    419
24.78    432
24.8     436
24.82    447
24.84    436
24.86    461
24.88    520
24.9     482
24.92    421
24.94    389
24.96    385
24.98    400
25.0     433
25.02    475
25.04    562
25.06    646
25.08    659
25.1     542
25.12    469
25.14    389
25.16    368
25.18    324
25.2     325
25.22    360
25.24    406
25.26    416
25.28    418
25.3     374
25.32    392
25.34    405
25.36    413
25.38    419
25.4     413
25.42    399
25.44    353
25.46    320
25.48    318
25.5     353
25.52    418
25.54    462
25.56    461
25.58    467
25.6     450
25.62    435
25.64    471
25.66    483
25.68    479
25.7     484
25.72    459
25.74    447
25.76    461
25.78    459
25.8     450
25.82    460
25.84    498
25.86    479
25.88    458
25.9     485
25.92    466
25.94    461
25.96    485
25.98    504
26.0     464
26.02    414
26.04    371
26.06    363
26.08    383
26.1     430
26.12    461
26.14    474
26.16    519
26.18    502
26.2     381
26.22    310
26.24    328
26.26    381
26.28    391
26.3     416
26.32    455
26.34    504
26.36    538
26.38    541
26.4     503
26.42    444
26.44    373
26.46    359
26.48    340
26.5     383
26.52    401
26.54    441
26.56    421
26.58    373
26.6     346
26.62    313
26.64    300
26.66    349
26.68    360
26.7     411
26.72    434
26.74    437
26.76    411
26.78    364
26.8     352
26.82    386
26.84    393
26.86    362
26.88    348
26.9     358
26.92    379
26.94    439
26.96    463
26.98    498
27.0     474
27.02    464
27.04    435
27.06    406
27.08    448
27.1     483
27.12    479
27.14    445
27.16    398
27.18    405
27.2     360
27.22    308
27.24    272
27.26    272
27.28    344
27.3     452
27.32    472
27.34    421
27.36    429
27.38    413
27.4     413
27.42    396
27.44    454
27.46    467
27.48    477
27.5     467
27.52    424
27.54    328
27.56    347
27.58    329
27.6     370
27.62    391
27.64    438
27.66    422
27.68    372
27.7     348
27.72    350
27.74    333
27.76    412
27.78    441
27.8     462
27.82    430
27.84    371
27.86    346
27.88    314
27.9     314
27.92    295
27.94    249
27.96    259
27.98    288
28.0     326
28.02    327
28.04    354
28.06    385
28.08    415
28.1     428
28.12    404
28.14    339
28.16    314
28.18    336
28.2     361
28.22    357
28.24    407
28.26    366
28.28    340
28.3     356
28.32    384
28.34    373
28.36    361
28.38    330
28.4     309
28.42    304
28.44    308
28.46    262
28.48    261
28.5     287
28.52    297
28.54    274
28.56    242
28.58    250
28.6     317
28.62    410
28.64    427
28.66    437
28.68    419
28.7     401
28.72    427
28.74    431
28.76    424
28.78    440
28.8     468
28.82    411
28.84    321
28.86    292
28.88    256
28.9     342
28.92    420
28.94    418
28.96    399
28.98    347
29.0     351
29.02    329
29.04    391
29.06    478
29.08    505
29.1     558
29.12    521
29.14    475
29.16    409
29.18    352
29.2     363
29.22    334
29.24    372
29.26    395
29.28    350
29.3     353
29.32    366
29.34    364
29.36    388
29.38    388
29.4     398
29.42    357
29.44    380
29.46    365
29.48    387
29.5     428
29.52    421
29.54    388
29.56    393
29.58    382
29.6     335
29.62    301
29.64    239
29.66    200
29.68    282
29.7     294
29.72    277
29.74    322
29.76    314
29.78    360
29.8     324
29.82    320
29.84    358
29.86    447
29.88    529
29.9     564
29.92    491
29.94    475
29.96    448
29.98    466
30.0     418
30.02    400
30.04    435
30.06    411
30.08    354
30.1     328
30.12    239
30.14    245
30.16    325
30.18    319
30.2     381
30.22    376
30.24    373
30.26    372
30.28    425
30.3     462
30.32    483
30.34    467
30.36    414
30.38    322
30.4     350
30.42    322
30.44    378
30.46    422
30.48    490
30.5     534
30.52    578
30.54    585
30.56    505
30.58    462
30.6     452
30.62    295
30.64    252
30.66    166
30.68    175
30.7     240
30.72    306
30.74    377
30.76    408
30.78    462
30.8     498
30.82    298
30.84    304
30.86    286
30.88    292
30.9     351
30.92    373
30.94    418
30.96    405
30.98    446
31.0     433
31.02    332
31.04    304
31.06    251
31.08    295
31.1     324
31.12    392
31.14    451
31.16    405
31.18    456
31.2     399
31.22    402
31.24    396
31.26    387
31.28    451
31.3     420
31.32    429
31.34    375
31.36    340
31.38    326
31.4     288
31.42    351
31.44    375
31.46    408
31.48    476
31.5     515
31.52    519
31.54    490
31.56    479
31.58    467
31.6     477
31.62    480
31.64    425
31.66    381
31.68    402
31.7     366
31.72    350
31.74    371
31.76    341
31.78    403
31.8     390
31.82    323
31.84    291
31.86    277
31.88    286
31.9     338
31.92    438
31.94    533
31.96    543
31.98    542
32.0     466
32.02    425
32.04    441
32.06    435
32.08    487
32.1     630
32.12    636
32.14    669
32.16    592
32.18    495
32.2     500
32.22    526
32.24    550
32.26    613
32.28    677
32.3     706
32.32    682
32.34    641
32.36    537
32.38    456
32.4     460
32.42    466
32.44    465
32.46    561
32.48    553
32.5     539
32.52    520
32.54    425
32.56    401
32.58    401
32.6     430
32.62    441
32.64    437
32.66    469
32.68    479
32.7     511
32.72    536
32.74    589
32.76    600
32.78    674
32.8     688
32.82    613
32.84    540
32.86    442
32.88    441
32.9     478
32.92    512
32.94    506
32.96    386
32.98    379
33.0     363
33.02    366
33.04    443
33.06    502
33.08    622
33.1     667
33.12    709
33.14    714
33.16    665
33.18    701
33.2     744
33.22    864
33.24    990
33.26    1047
33.28    1139
33.3     1253
33.32    1473
33.34    1762
33.36    2124
33.38    2586
33.4     3164
33.42    3864
33.44    4686
33.46    5631
33.48    6700
33.5     7872
33.52    8946
33.54    9679
33.56    10025
33.58    9761
33.6     9001
33.62    7817
33.64    6437
33.66    5057
33.68    3811
33.7     2897
33.72    2308
33.74    1867
33.76    1628
33.78    1454
33.8     1264
33.82    1129
33.84    987
33.86    870
33.88    830
33.9     848
33.92    827
33.94    813
33.96    775
33.98    723
34.0     670
34.02    596
34.04    557
34.06    555
34.08    579
34.1     622
34.12    607
34.14    615
34.16    546
34.18    483
34.2     469
34.22    422
34.24    477
34.26    528
34.28    576
34.3     684
34.32    716
34.34    709
34.36    677
34.38    611
34.4     533
34.42    527
34.44    546
34.46    573
34.48    583
34.5     602
34.52    588
34.54    579
34.56    557
34.58    536
34.6     550
34.62    585
34.64    670
34.66    712
34.68    707
34.7     684
34.72    692
34.74    673
34.76    661
34.78    682
34.8     694
34.82    687
34.84    707
34.86    757
34.88    857
34.9     971
34.92    1223
34.94    1512
34.96    1855
34.98    2296
35.0     2865
35.02    3769
35.04    4987
35.06    6603
35.08    8254
35.1     9688
35.12    10549
35.14    10695
35.16    10044
35.18    8757
35.2     7109
35.22    5481
35.24    4077
35.26    3086
35.28    2396
35.3     1955
35.32    1596
35.34    1371
35.36    1195
35.38    1058
35.4     967
35.42    945
35.44    907
35.46    890
35.48    843
35.5     771
35.52    694
35.54    626
35.56    620
35.58    636
35.6     665
35.62    790
35.64    816
35.66    829
35.68    774
35.7     735
35.72    599
35.74    561
35.76    539
35.78    517
35.8     558
35.82    683
35.84    697
35.86    724
35.88    722
35.9     692
35.92    613
35.94    618
35.96    593
35.98    574
36.0     632
36.02    739
36.04    755
36.06    820
36.08    893
36.1     869
36.12    904
36.14    986
36.16    1094
36.18    1212
36.2     1392
36.22    1548
36.24    1724
36.26    1979
36.28    2372
36.3     2840
36.32    3679
36.34    4850
36.36    6376
36.38    8463
36.4     11187
36.42    14273
36.44    17355
36.46    19920
36.48    21482
36.5     21678
36.52    20555
36.54    18239
36.56    15106
36.58    11831
36.6     8922
36.62    6615
36.64    4843
36.66    3702
36.68    2892
36.7     2299
36.72    1911
36.74    1656
36.76    1448
36.78    1258
36.8     1149
36.82    1103
36.84    999
36.86    982
36.88    945
36.9     881
36.92    814
36.94    770
36.96    771
36.98    687
37.0     656
37.02    631
37.04    565
37.06    551
37.08    637
37.1     626
37.12    640
37.14    695
37.16    736
37.18    684
37.2     686
37.22    647
37.24    574
37.26    560
37.28    657
37.3     703
37.32    840
37.34    965
37.36    1012
37.38    1061
37.4     1044
37.42    976
37.44    872
37.46    731
37.48    683
37.5     650
37.52    613
37.54    533
37.56    483
37.58    479
37.6     491
37.62    596
37.64    644
37.66    662
37.68    740
37.7     721
37.72    624
37.74    521
37.76    470
37.78    463
37.8     548
37.82    656
37.84    704
37.86    748
37.88    790
37.9     714
37.92    614
37.94    511
37.96    447
37.98    414
38.0     386
38.02    451
38.04    533
38.06    571
38.08    595
38.1     564
38.12    551
38.14    512
38.16    497
38.18    417
38.2     412
38.22    483
38.24    549
38.26    586
38.28    677
38.3     633
38.32    595
38.34    558
38.36    506
38.38    393
38.4     406
38.42    402
38.44    415
38.46    461
38.48    533
38.5     389
38.52    375
38.54    389
38.56    416
38.58    459
38.6     589
38.62    630
38.64    601
38.66    590
38.68    557
38.7     435
38.72    450
38.74    481
38.76    510
38.78    529
38.8     608
38.82    571
38.84    448
38.86    445
38.88    414
38.9     375
38.92    402
38.94    489
38.96    458
38.98    451
39.0     501
39.02    496
39.04    412
39.06    452
39.08    487
39.1     503
39.12    519
39.14    580
39.16    560
39.18    535
39.2     494
39.22    456
39.24    403
39.26    443
39.28    518
39.3     565
39.32    633
39.34    669
39.36    684
39.38    601
39.4     524
39.42    448
39.44    461
39.46    458
39.48    469
39.5     450
39.52    483
39.54    467
39.56    466
39.58    445
39.6     437
39.62    459
39.64    546
39.66    552
39.68    573
39.7     573
39.72    570
39.74    551
39.76    508
39.78    477
39.8     399
39.82    439
39.84    465
39.86    466
39.88    513
39.9     590
39.92    639
39.94    631
39.96    603
39.98    559
40.0     495
40.02    557
40.04    643
40.06    700
40.08    784
40.1     888
40.12    934
40.14    855
40.16    805
40.18    748
40.2     669
40.22    694
40.24    762
40.26    848
40.28    914
40.3     954
40.32    981
40.34    1001
40.36    965
40.38    856
40.4     732
40.42    714
40.44    738
40.46    785
40.48    808
40.5     872
40.52    954
40.54    1009
40.56    933
40.58    875
40.6     821
40.62    774
40.64    770
40.66    764
40.68    859
40.7     995
40.72    1134
40.74    1242
40.76    1292
40.78    1318
40.8     1284
40.82    1213
40.84    1155
40.86    1040
40.88    1061
40.9     1091
40.92    1164
40.94    1284
40.96    1413
40.98    1501
41.0     1689
41.02    1760
41.04    1833
41.06    1876
41.08    1978
41.1     2027
41.12    2126
41.14    2324
41.16    2510
41.18    2744
41.2     3093
41.22    3456
41.24    3982
41.26    4596
41.28    5331
41.3     6250
41.32    7364
41.34    8870
41.36    10805
41.38    13598
41.4     17231
41.42    22177
41.44    28835
41.46    37327
41.48    47365
41.5     57682
41.52    66727
41.54    72732
41.56    74560
41.58    72024
41.6     65232
41.62    55689
41.64    45000
41.66    34895
41.68    26380
41.7     19808
41.72    15053
41.74    11545
41.76    9022
41.78    7359
41.8     6158
41.82    5285
41.84    4607
41.86    4152
41.88    3678
41.9     3296
41.92    2945
41.94    2642
41.96    2405
41.98    2277
42.0     2155
42.02    2014
42.04    1913
42.06    1791
42.08    1703
42.1     1621
42.12    1511
42.14    1406
42.16    1369
42.18    1329
42.2     1318
42.22    1324
42.24    1295
42.26    1293
42.28    1257
42.3     1190
42.32    1096
42.34    1031
42.36    976
42.38    959
42.4     1006
42.42    1019
42.44    1052
42.46    1094
42.48    1096
42.5     1098
42.52    1019
42.54    979
42.56    938
42.58    900
42.6     822
42.62    720
42.64    698
42.66    675
42.68    716
42.7     732
42.72    709
42.74    823
42.76    866
42.78    898
42.8     856
42.82    836
42.84    794
42.86    672
42.88    598
42.9     578
42.92    611
42.94    674
42.96    764
42.98    863
43.0     937
43.02    972
43.04    878
43.06    802
43.08    699
43.1     610
43.12    528
43.14    515
43.16    560
43.18    572
43.2     668
43.22    728
43.24    705
43.26    711
43.28    691
43.3     708
43.32    632
43.34    622
43.36    627
43.38    640
43.4     657
43.42    661
43.44    724
43.46    757
43.48    833
43.5     849
43.52    799
43.54    760
43.56    713
43.58    612
43.6     541
43.62    502
43.64    538
43.66    560
43.68    566
43.7     635
43.72    675
43.74    705
43.76    672
43.78    648
43.8     707
43.82    692
43.84    673
43.86    629
43.88    641
43.9     686
43.92    569
43.94    568
43.96    588
43.98    618
44.0     660
44.02    639
44.04    659
44.06    616
44.08    613
44.1     537
44.12    439
44.14    434
44.16    485
44.18    439
44.2     471
44.22    536
44.24    647
44.26    692
44.28    703
44.3     782
44.32    749
44.34    652
44.36    550
44.38    477
44.4     469
44.42    412
44.44    397
44.46    385
44.48    457
44.5     520
44.52    488
44.54    558
44.56    570
44.58    656
44.6     715
44.62    726
44.64    758
44.66    720
44.68    683
44.7     585
44.72    513
44.74    482
44.76    401
44.78    417
44.8     511
44.82    601
44.84    745
44.86    817
44.88    894
44.9     960
44.92    1024
44.94    1125
44.96    1264
44.98    1417
45.0     1566
45.02    1690
45.04    1839
45.06    1860
45.08    1801
45.1     1631
45.12    1519
45.14    1356
45.16    1161
45.18    971
45.2     840
45.22    801
45.24    779
45.26    771
45.28    801
45.3     800
45.32    860
45.34    841
45.36    770
45.38    719
45.4     672
45.42    689
45.44    619
45.46    593
45.48    605
45.5     588
45.52    579
45.54    538
45.56    514
45.58    527
45.6     539
45.62    608
45.64    624
45.66    659
45.68    666
45.7     645
45.72    578
45.74    541
45.76    480
45.78    442
45.8     515
45.82    584
45.84    627
45.86    678
45.88    664
45.9     645
45.92    587
45.94    521
45.96    471
45.98    435
46.0     469
46.02    498
46.04    526
46.06    621
46.08    608
46.1     606
46.12    634
46.14    571
46.16    550
46.18    471
46.2     467
46.22    488
46.24    482
46.26    517
46.28    529
46.3     550
46.32    581
46.34    572
46.36    589
46.38    602
46.4     546
46.42    500
46.44    429
46.46    418
46.48    452
46.5     421
46.52    465
46.54    585
46.56    645
46.58    606
46.6     524
46.62    510
46.64    498
46.66    436
46.68    392
46.7     390
46.72    468
46.74    537
46.76    497
46.78    542
46.8     635
46.82    670
46.84    663
46.86    553
46.88    491
46.9     494
46.92    446
46.94    413
46.96    371
46.98    394
47.0     471
47.02    473
47.04    474
47.06    484
47.08    486
47.1     564
47.12    537
47.14    498
47.16    492
47.18    416
47.2     470
47.22    455
47.24    480
47.26    499
47.28    510
47.3     561
47.32    475
47.34    448
47.36    444
47.38    419
47.4     416
47.42    371
47.44    427
47.46    496
47.48    569
47.5     585
47.52    543
47.54    590
47.56    580
47.58    502
47.6     424
47.62    403
47.64    429
47.66    476
47.68    471
47.7     480
47.72    541
47.74    612
47.76    649
47.78    595
47.8     643
47.82    631
47.84    551
47.86    496
47.88    481
47.9     491
47.92    450
47.94    398
47.96    407
47.98    375
48.0     364
48.02    337
48.04    362
48.06    459
48.08    526
48.1     541
48.12    548
48.14    597
48.16    676
48.18    698
48.2     675
48.22    679
48.24    646
48.26    615
48.28    528
48.3     455
48.32    374
48.34    375
48.36    409
48.38    404
48.4     396
48.42    402
48.44    438
48.46    461
48.48    507
48.5     530
48.52    530
48.54    604
48.56    639
48.58    554
48.6     529
48.62    511
48.64    483
48.66    414
48.68    444
48.7     522
48.72    549
48.74    560
48.76    582
48.78    596
48.8     611
48.82    606
48.84    528
48.86    534
48.88    544
48.9     511
48.92    420
48.94    364
48.96    406
48.98    502
49.0     513
49.02    546
49.04    605
49.06    675
49.08    625
49.1     561
49.12    476
49.14    482
49.16    458
49.18    496
49.2     481
49.22    488
49.24    533
49.26    559
49.28    553
49.3     569
49.32    553
49.34    594
49.36    530
49.38    558
49.4     473
49.42    422
49.44    354
49.46    380
49.48    367
49.5     385
49.52    410
49.54    479
49.56    474
49.58    509
49.6     494
49.62    540
49.64    482
49.66    533
49.68    524
49.7     547
49.72    527
49.74    500
49.76    471
49.78    431
49.8     394
49.82    401
49.84    321
49.86    387
49.88    441
49.9     525
49.92    548
49.94    624
49.96    690
49.98    654
50.0     570
50.02    511
50.04    391
50.06    380
50.08    352
50.1     361
50.12    370
50.14    450
50.16    483
50.18    508
50.2     511
50.22    495
50.24    490
50.26    481
50.28    486
50.3     479
50.32    498
50.34    495
50.36    483
50.38    514
50.4     475
50.42    410
50.44    394
50.46    313
50.48    286
50.5     274
50.52    308
50.54    339
50.56    423
50.58    523
50.6     556
50.62    617
50.64    601
50.66    530
50.68    509
50.7     480
50.72    415
50.74    357
50.76    361
50.78    381
50.8     448
50.82    485
50.84    502
50.86    504
50.88    585
50.9     519
50.92    496
50.94    507
50.96    524
50.98    550
51.0     562
51.02    534
51.04    567
51.06    459
51.08    430
51.1     352
51.12    407
51.14    437
51.16    428
51.18    475
51.2     490
51.22    487
51.24    497
51.26    437
51.28    479
51.3     527
51.32    568
51.34    554
51.36    550
51.38    592
51.4     610
51.42    553
51.44    576
51.46    548
51.48    638
51.5     633
51.52    591
51.54    595
51.56    642
51.58    588
51.6     576
51.62    491
51.64    486
51.66    432
51.68    436
51.7     355
51.72    383
51.74    423
51.76    533
51.78    513
51.8     612
51.82    708
51.84    761
51.86    755
51.88    764
51.9     669
51.92    615
51.94    495
51.96    415
51.98    311
52.0     297
52.02    305
52.04    386
52.06    480
52.08    623
52.1     640
52.12    684
52.14    740
52.16    710
52.18    667
52.2     621
52.22    587
52.24    640
52.26    617
52.28    618
52.3     630
52.32    592
52.34    597
52.36    566
52.38    564
52.4     569
52.42    535
52.44    482
52.46    466
52.48    493
52.5     534
52.52    508
52.54    568
52.56    600
52.58    671
52.6     649
52.62    549
52.64    522
52.66    552
52.68    520
52.7     531
52.72    575
52.74    672
52.76    722
52.78    748
52.8     717
52.82    673
52.84    659
52.86    595
52.88    495
52.9     474
52.92    499
52.94    521
52.96    548
52.98    592
53.0     709
53.02    816
53.04    883
53.06    898
53.08    936
53.1     962
53.12    996
53.14    978
53.16    990
53.18    1013
53.2     1127
53.22    1274
53.24    1507
53.26    1731
53.28    1906
53.3     2166
53.32    2560
53.34    2974
53.36    3467
53.38    4014
53.4     4697
53.42    5425
53.44    6090
53.46    6454
53.48    6440
53.5     6330
53.52    5929
53.54    5270
53.56    4495
53.58    3726
53.6     3149
53.62    2656
53.64    2212
53.66    1807
53.68    1480
53.7     1358
53.72    1163
53.74    1037
53.76    955
53.78    973
53.8     1038
53.82    1048
53.84    1028
53.86    972
53.88    917
53.9     880
53.92    742
53.94    630
53.96    607
53.98    648
54.0     592
54.02    617
54.04    620
54.06    634
54.08    652
54.1     598
54.12    516
54.14    506
54.16    570
54.18    629
54.2     588
54.22    609
54.24    590
54.26    657
54.28    648
54.3     556
54.32    496
54.34    542
54.36    544
54.38    535
54.4     507
54.42    479
54.44    499
54.46    500
54.48    460
54.5     394
54.52    388
54.54    392
54.56    382
54.58    442
54.6     534
54.62    638
54.64    748
54.66    761
54.68    779
54.7     707
54.72    663
54.74    533
54.76    476
54.78    486
54.8     477
54.82    519
54.84    556
54.86    541
54.88    588
54.9     588
54.92    621
54.94    614
54.96    608
54.98    567
55.0     501
55.02    444
55.04    363
55.06    354
55.08    396
55.1     425
55.12    495
55.14    569
55.16    566
55.18    589
55.2     600
55.22    580
55.24    514
55.26    515
55.28    437
55.3     504
55.32    497
55.34    479
55.36    417
55.38    448
55.4     500
55.42    499
55.44    495
55.46    501
55.48    569
55.5     667
55.52    610
55.54    575
55.56    544
55.58    582
55.6     559
55.62    478
55.64    430
55.66    437
55.68    485
55.7     467
55.72    416
55.74    396
55.76    435
55.78    488
55.8     449
55.82    439
55.84    439
55.86    543
55.88    562
55.9     586
55.92    539
55.94    459
55.96    488
55.98    494
56.0     445
56.02    438
56.04    465
56.06    512
56.08    537
56.1     587
56.12    574
56.14    550
56.16    571
56.18    555
56.2     516
56.22    552
56.24    538
56.26    517
56.28    546
56.3     554
56.32    544
56.34    516
56.36    486
56.38    496
56.4     530
56.42    558
56.44    542
56.46    556
56.48    513
56.5     468
56.52    454
56.54    412
56.56    447
56.58    489
56.6     503
56.62    489
56.64    565
56.66    606
56.68    534
56.7     548
56.72    596
56.74    620
56.76    672
56.78    648
56.8     634
56.82    614
56.84    648
56.86    552
56.88    510
56.9     538
56.92    576
56.94    590
56.96    531
56.98    482
57.0     487
57.02    469
57.04    452
57.06    439
57.08    506
57.1     586
57.12    689
57.14    772
57.16    711
57.18    716
57.2     709
57.22    617
57.24    558
57.26    529
57.28    444
57.3     440
57.32    541
57.34    720
57.36    759
57.38    860
57.4     923
57.42    934
57.44    949
57.46    919
57.48    822
57.5     714
57.52    739
57.54    764
57.56    641
57.58    594
57.6     595
57.62    590
57.64    592
57.66    707
57.68    805
57.7     870
57.72    995
57.74    1049
57.76    1061
57.78    1079
57.8     1149
57.82    1109
57.84    1106
57.86    1240
57.88    1388
57.9     1494
57.92    1601
57.94    1697
57.96    1811
57.98    1967
58.0     2264
58.02    2445
58.04    2725
58.06    3140
58.08    3620
58.1     4212
58.12    4940
58.14    5821
58.16    6915
58.18    8326
58.2     9868
58.22    11370
58.24    12750
58.26    13745
58.28    14172
58.3     14161
58.32    13509
58.34    12366
58.36    10972
58.38    9523
58.4     8066
58.42    6796
58.44    5747
58.46    4767
58.48    3992
58.5     3487
58.52    3001
58.54    2638
58.56    2375
58.58    2126
58.6     1947
58.62    1799
58.64    1650
58.66    1428
58.68    1342
58.7     1239
58.72    1126
58.74    1010
58.76    954
58.78    930
58.8     953
58.82    957
58.84    890
58.86    895
58.88    977
58.9     962
58.92    938
58.94    837
58.96    801
58.98    759
59.0     703
59.02    663
59.04    580
59.06    604
59.08    648
59.1     707
59.12    743
59.14    731
59.16    725
59.18    731
59.2     679
59.22    633
59.24    528
59.26    488
59.28    451
59.3     518
59.32    495
59.34    502
59.36    546
59.38    599
59.4     581
59.42    587
59.44    575
59.46    602
59.48    663
59.5     751
59.52    730
59.54    768
59.56    776
59.58    708
59.6     676
59.62    593
59.64    529
59.66    432
59.68    439
59.7     475
59.72    526
59.74    584
59.76    575
59.78    538
59.8     528
59.82    486
59.84    478
59.86    468
59.88    508
59.9     560
59.92    554
59.94    544
59.96    562
59.98    552
60.0     518
60.02    510
60.04    505
60.06    536
60.08    571
60.1     605
60.12    583
60.14    607
60.16    621
60.18    632
60.2     681
60.22    656
60.24    602
60.26    597
60.28    599
60.3     592
60.32    566
60.34    483
60.36    434
60.38    470
60.4     589
60.42    573
60.44    560
60.46    597
60.48    587
60.5     599
60.52    665
60.54    609
60.56    598
60.58    582
60.6     633
60.62    594
60.64    598
60.66    617
60.68    553
60.7     555
60.72    632
60.74    635
60.76    650
60.78    619
60.8     610
60.82    595
60.84    577
60.86    554
60.88    485
60.9     436
60.92    473
60.94    504
60.96    541
60.98    512
61.0     457
61.02    489
61.04    478
61.06    530
61.08    513
61.1     504
61.12    522
61.14    517
61.16    560
61.18    564
61.2     591
61.22    643
61.24    671
61.26    725
61.28    711
61.3     741
61.32    729
61.34    713
61.36    743
61.38    724
61.4     727
61.42    646
61.44    664
61.46    614
61.48    608
61.5     614
61.52    605
61.54    645
61.56    702
61.58    686
61.6     684
61.62    687
61.64    779
61.66    822
61.68    885
61.7     891
61.72    953
61.74    973
61.76    1007
61.78    1026
61.8     1133
61.82    1268
61.84    1420
61.86    1615
61.88    1754
61.9     1902
61.92    2209
61.94    2502
61.96    2984
61.98    3583
62.0     4414
62.02    5477
62.04    6832
62.06    8375
62.08    10061
62.1     11764
62.12    13331
62.14    14341
62.16    14804
62.18    14580
62.2     13816
62.22    12697
62.24    11314
62.26    9838
62.28    8567
62.3     7466
62.32    6490
62.34    5582
62.36    4797
62.38    4071
62.4     3459
62.42    2972
62.44    2493
62.46    2078
62.48    1782
62.5     1499
62.52    1355
62.54    1212
62.56    1067
62.58    982
62.6     950
62.62    935
62.64    888
62.66    859
62.68    825
62.7     816
62.72    846
62.74    845
62.76    811
62.78    834
62.8     836
62.82    762
62.84    732
62.86    709
62.88    622
62.9     636
62.92    591
62.94    529
62.96    484
62.98    513
63.0     517
63.02    482
63.04    605
63.06    649
63.08    645
63.1     737
63.12    762
63.14    672
63.16    671
63.18    629
63.2     579
63.22    483
63.24    502
63.26    427
63.28    416
63.3     413
63.32    480
63.34    440
63.36    465
63.38    524
63.4     597
63.42    578
63.44    616
63.46    630
63.48    653
63.5     547
63.52    565
63.54    513
63.56    444
63.58    467
63.6     511
63.62    520
63.64    558
63.66    597
63.68    628
63.7     570
63.72    610
63.74    599
63.76    509
63.78    524
63.8     569
63.82    577
63.84    540
63.86    504
63.88    536
63.9     498
63.92    491
63.94    485
63.96    522
63.98    539
64.0     549
64.02    588
64.04    575
64.06    550
64.08    558
64.1     555
64.12    529
64.14    478
64.16    466
64.18    420
64.2     381
64.22    418
64.24    445
64.26    529
64.28    605
64.3     696
64.32    794
64.34    820
64.36    817
64.38    813
64.4     720
64.42    628
64.44    596
64.46    610
64.48    581
64.5     551
64.52    627
64.54    706
64.56    763
64.58    874
64.6     1026
64.62    1195
64.64    1434
64.66    1664
64.68    1869
64.7     2058
64.72    2341
64.74    2655
64.76    3026
64.78    3369
64.8     3755
64.82    3963
64.84    4089
64.86    4050
64.88    3868
64.9     3614
64.92    3292
64.94    2905
64.96    2617
64.98    2281
65.0     2028
65.02    1800
65.04    1594
65.06    1462
65.08    1325
65.1     1253
65.12    1147
65.14    1005
65.16    886
65.18    766
65.2     669
65.22    647
65.24    566
65.26    571
65.28    502
65.3     527
65.32    511
65.34    518
65.36    499
65.38    549
65.4     565
65.42    600
65.44    536
65.46    505
65.48    497
65.5     529
65.52    454
65.54    478
65.56    458
65.58    485
65.6     530
65.62    565
65.64    497
65.66    509
65.68    560
65.7     564
65.72    551
65.74    567
65.76    552
65.78    515
65.8     480
65.82    473
65.84    437
65.86    415
65.88    445
65.9     537
65.92    585
65.94    591
65.96    609
65.98    614
66.0     564
66.02    580
66.04    548
66.06    422
66.08    338
66.1     349
66.12    348
66.14    378
66.16    386
66.18    444
66.2     496
66.22    527
66.24    603
66.26    565
66.28    548
66.3     508
66.32    491
66.34    502
66.36    504
66.38    514
66.4     534
66.42    465
66.44    517
66.46    475
66.48    458
66.5     385
66.52    347
66.54    396
66.56    453
66.58    473
66.6     478
66.62    393
66.64    414
66.66    399
66.68    390
66.7     427
66.72    396
66.74    477
66.76    498
66.78    515
66.8     525
66.82    549
66.84    557
66.86    574
66.88    574
66.9     598
66.92    532
66.94    537
66.96    484
66.98    413
67.0     408
67.02    425
67.04    393
67.06    362
67.08    389
67.1     384
67.12    411
67.14    421
67.16    472
67.18    470
67.2     518
67.22    517
67.24    452
67.26    372
67.28    373
67.3     344
67.32    410
67.34    452
67.36    505
67.38    586
67.4     621
67.42    601
67.44    600
67.46    554
67.48    503
67.5     460
67.52    427
67.54    415
67.56    409
67.58    472
67.6     471
67.62    435
67.64    465
67.66    429
67.68    454
67.7     442
67.72    459
67.74    469
67.76    498
67.78    550
67.8     537
67.82    523
67.84    509
67.86    495
67.88    502
67.9     468
67.92    480
67.94    446
67.96    481
67.98    525
68.0     542
68.02    494
68.04    485
68.06    510
68.08    563
68.1     604
68.12    624
68.14    624
68.16    629
68.18    630
68.2     578
68.22    503
68.24    468
68.26    436
68.28    477
68.3     462
68.32    455
68.34    493
68.36    530
68.38    568
68.4     580
68.42    650
68.44    743
68.46    746
68.48    798
68.5     786
68.52    910
68.54    931
68.56    912
68.58    849
68.6     795
68.62    784
68.64    774
68.66    707
68.68    716
68.7     735
68.72    833
68.74    876
68.76    984
68.78    1132
68.8     1352
68.82    1619
68.84    1930
68.86    2298
68.88    2652
68.9     2914
68.92    3208
68.94    3469
68.96    3596
68.98    3729
69.0     3725
69.02    3589
69.04    3389
69.06    3110
69.08    2794
69.1     2444
69.12    2201
69.14    1948
69.16    1735
69.18    1584
69.2     1375
69.22    1168
69.24    1051
69.26    964
69.28    918
69.3     877
69.32    822
69.34    823
69.36    865
69.38    853
69.4     846
69.42    831
69.44    833
69.46    764
69.48    704
69.5     604
69.52    552
69.54    555
69.56    533
69.58    513
69.6     538
69.62    577
69.64    584
69.66    567
69.68    588
69.7     614
69.72    638
69.74    646
69.76    608
69.78    599
69.8     583
69.82    528
69.84    504
69.86    461
69.88    462
69.9     400
69.92    428
69.94    457
69.96    500
69.98    560
70.0     564
70.02    566
70.04    589
70.06    604
70.08    608
70.1     599
70.12    592
70.14    600
70.16    614
70.18    601
70.2     602
70.22    625
70.24    626
70.26    699
70.28    767
70.3     860
70.32    911
70.34    944
70.36    962
70.38    995
70.4     1083
70.42    1133
70.44    1208
70.46    1297
70.48    1426
70.5     1539
70.52    1618
70.54    1720
70.56    1804
70.58    1832
70.6     1906
70.62    1910
70.64    1844
70.66    1747
70.68    1663
70.7     1518
70.72    1442
70.74    1367
70.76    1237
70.78    1078
70.8     974
70.82    874
70.84    787
70.86    748
70.88    673
70.9     588
70.92    542
70.94    510
70.96    483
70.98    412
71.0     372
71.02    408
71.04    436
71.06    436
71.08    423
71.1     455
71.12    561
71.14    638
71.16    644
71.18    638
71.2     648
71.22    665
71.24    604
71.26    577
71.28    544
71.3     556
71.32    602
71.34    576
71.36    559
71.38    537
71.4     559
71.42    541
71.44    485
71.46    457
71.48    423
71.5     451
71.52    482
71.54    526
71.56    529
71.58    533
71.6     524
71.62    456
71.64    438
71.66    462
71.68    508
71.7     535
71.72    581
71.74    615
71.76    579
71.78    567
71.8     585
71.82    562
71.84    587
71.86    582
71.88    562
71.9     490
71.92    524
71.94    590
71.96    625
71.98    688
72.0     764
72.02    709
72.04    654
72.06    629
72.08    645
72.1     628
72.12    729
72.14    799
72.16    871
72.18    894
72.2     912
72.22    912
72.24    966
72.26    1012
72.28    1044
72.3     1061
72.32    1163
72.34    1314
72.36    1496
72.38    1718
72.4     2026
72.42    2413
72.44    2798
72.46    3168
72.48    3595
72.5     4018
72.52    4405
72.54    4650
72.56    4750
72.58    4743
72.6     4568
72.62    4333
72.64    3916
72.66    3544
72.68    3181
72.7     2829
72.72    2464
72.74    2144
72.76    1921
72.78    1659
72.8     1447
72.82    1262
72.84    1022
72.86    910
72.88    863
72.9     872
72.92    925
72.94    922
72.96    907
72.98    863
73.0     878
73.02    840
73.04    761
73.06    778
73.08    816
73.1     772
73.12    700
73.14    570
73.16    531
73.18    543
73.2     549
73.22    558
73.24    596
73.26    710
73.28    673
73.3     668
73.32    673
73.34    758
73.36    777
73.38    794
73.4     881
73.42    1002
73.44    1134
73.46    1177
73.48    1146
73.5     1201
73.52    1191
73.54    1147
73.56    1015
73.58    965
73.6     985
73.62    973
73.64    949
73.66    895
73.68    857
73.7     859
73.72    849
73.74    839
73.76    787
73.78    771
73.8     737
73.82    697
73.84    657
73.86    583
73.88    516
73.9     541
73.92    552
73.94    548
73.96    533
73.98    576
74.0     664
74.02    707
74.04    763
74.06    805
74.08    926
74.1     1026
74.12    1126
74.14    1204
74.16    1339
74.18    1529
74.2     1681
74.22    1776
74.24    1896
74.26    2072
74.28    2218
74.3     2190
74.32    2218
74.34    2096
74.36    2016
74.38    1927
74.4     1758
74.42    1637
74.44    1529
74.46    1503
74.48    1437
74.5     1323
74.52    1306
74.54    1249
74.56    1287
74.58    1281
74.6     1280
74.62    1289
74.64    1251
74.66    1261
74.68    1279
74.7     1339
74.72    1402
74.74    1513
74.76    1619
74.78    1701
74.8     1822
74.82    1905
74.84    1947
74.86    1934
74.88    1936
74.9     1995
74.92    1891
74.94    1806
74.96    1749
74.98    1651
75.0     1560
75.02    1407
75.04    1212
75.06    1022
75.08    914
75.1     828
75.12    649
75.14    609
75.16    657
75.18    540
75.2     556
75.22    531
75.24    491
75.26    536
75.28    561
75.3     581
75.32    657
75.34    723
75.36    725
75.38    591
75.4     642
75.42    603
75.44    568
75.46    527
75.48    499
75.5     525
75.52    540
75.54    490
75.56    484
75.58    511
75.6     534
75.62    535
75.64    528
75.66    503
75.68    549
75.7     574
75.72    535
75.74    500
75.76    484
75.78    467
75.8     405
75.82    374
75.84    379
75.86    375
75.88    402
75.9     436
75.92    390
75.94    377
75.96    374
75.98    418
76.0     472
76.02    522
76.04    556
76.06    491
76.08    492
76.1     489
76.12    431
76.14    474
76.16    475
76.18    459
76.2     483
76.22    494
76.24    449
76.26    444
76.28    483
76.3     501
76.32    535
76.34    575
76.36    616
76.38    575
76.4     605
76.42    594
76.44    577
76.46    623
76.48    620
76.5     582
76.52    575
76.54    502
76.56    528
76.58    466
76.6     480
76.62    482
76.64    506
76.66    531
76.68    522
76.7     490
76.72    434
76.74    392
76.76    427
76.78    484
76.8     542
76.82    536
76.84    560
76.86    592
76.88    541
76.9     473
76.92    441
76.94    501
76.96    574
76.98    631
77.0     621
77.02    608
77.04    680
77.06    720
77.08    678
77.1     712
77.12    779
77.14    792
77.16    840
77.18    834
77.2     839
77.22    856
77.24    930
77.26    945
77.28    1061
77.3     1156
77.32    1213
77.34    1278
77.36    1462
77.38    1630
77.4     1865
77.42    2118
77.44    2435
77.46    2742
77.48    3221
77.5     3593
77.52    3929
77.54    4281
77.56    4593
77.58    4800
77.6     4944
77.62    4918
77.64    4770
77.66    4503
77.68    4230
77.7     3832
77.72    3460
77.74    3102
77.76    2805
77.78    2537
77.8     2305
77.82    1990
77.84    1706
77.86    1437
77.88    1259
77.9     1121
77.92    1036
77.94    928
77.96    894
77.98    917
78.0     910
78.02    743
78.04    717
78.06    766
78.08    796
78.1     779
78.12    725
78.14    625
78.16    593
78.18    605
78.2     571
78.22    425
78.24    512
78.26    593
78.28    489
78.3     505
78.32    510
78.34    506
78.36    583
78.38    583
78.4     567
78.42    477
78.44    509
78.46    473
78.48    336
78.5     381
78.52    405
78.54    399
78.56    448
78.58    432
78.6     390
78.62    442
78.64    481
78.66    512
78.68    501
78.7     505
78.72    562
78.74    454
78.76    462
78.78    449
78.8     423
78.82    430
78.84    458
78.86    453
78.88    431
78.9     366
78.92    401
78.94    355
78.96    317
78.98    354
79.0     414
79.02    394
79.04    440
79.06    453
79.08    477
79.1     481
79.12    511
79.14    456
79.16    370
79.18    376
79.2     384
79.22    301
79.24    276
79.26    289
79.28    311
79.3     348
79.32    335
79.34    279
79.36    344
79.38    388
79.4     413
79.42    471
79.44    531
79.46    450
79.48    444
79.5     456
79.52    460
79.54    433
79.56    505
79.58    577
79.6     546
79.62    559
79.64    547
79.66    410
79.68    429
79.7     476
79.72    452
79.74    418
79.76    400
79.78    437
79.8     376
79.82    318
79.84    405
79.86    434
79.88    487
79.9     578
79.92    595
79.94    581
79.96    586
79.98    652
80.0     666
80.02    654
80.04    732
80.06    763
80.08    707
80.1     711
80.12    673
80.14    584
80.16    545
80.18    547
80.2     560
80.22    465
80.24    431
80.26    432
80.28    423
80.3     397
80.32    394
80.34    412
80.36    416
80.38    461
80.4     467
80.42    422
80.44    403
80.46    517
80.48    549
80.5     537
80.52    571
80.54    606
80.56    608
80.58    545
80.6     429
80.62    378
80.64    296
80.66    323
80.68    267
80.7     225
80.72    230
80.74    240
80.76    242
80.78    211
80.8     159
80.82    285
80.84    345
80.86    394
80.88    431
80.9     483
80.92    508
80.94    542
80.96    514
80.98    521
81.0     524
81.02    577
81.04    571
81.06    499
81.08    460
81.1     442
81.12    367
81.14    288
81.16    273
81.18    243
81.2     269
81.22    275
81.24    340
81.26    332
81.28    336
81.3     347
81.32    347
81.34    308
81.36    400
81.38    412
81.4     461
81.42    504
81.44    564
81.46    558
81.48    489
81.5     433
81.52    417
81.54    432
81.56    455
81.58    466
81.6     459
81.62    459
81.64    487
81.66    498
81.68    448
81.7     394
81.72    441
81.74    513
81.76    468
81.78    421
81.8     372
81.82    378
81.84    392
81.86    432
81.88    375
81.9     283
81.92    313
81.94    325
81.96    280
81.98    292
82.0     336
82.02    451
82.04    475
82.06    477
82.08    366
82.1     295
82.12    254
82.14    237
82.16    211
82.18    288
82.2     310
82.22    381
82.24    383
82.26    381
82.28    354
82.3     382
82.32    443
82.34    509
82.36    531
82.38    571
82.4     509
82.42    451
82.44    404
82.46    385
82.48    339
82.5     399
82.52    491
82.54    546
82.56    524
82.58    454
82.6     438
82.62    344
82.64    351
82.66    344
82.68    355
82.7     447
82.72    489
82.74    503
82.76    498
82.78    474
82.8     460
82.82    328
82.84    326
82.86    279
82.88    283
82.9     318
82.92    357
82.94    430
82.96    504
82.98    492
83.0     423
83.02    386
83.04    426
83.06    392
83.08    397
83.1     396
83.12    427
83.14    444
83.16    441
83.18    376
83.2     346
83.22    313
83.24    347
83.26    357
83.28    345
83.3     305
83.32    356
83.34    357
83.36    343
83.38    351
83.4     340
83.42    284
83.44    348
83.46    360
83.48    359
83.5     358
83.52    418
83.54    451
83.56    494
83.58    533
83.6     494
83.62    533
83.64    567
83.66    560
83.68    503
83.7     493
83.72    470
83.74    498
83.76    464
83.78    396
83.8     355
83.82    371
83.84    323
83.86    269
83.88    220
83.9     253
83.92    271
83.94    307
83.96    332
83.98    344
84.0     327
84.02    407
84.04    406
84.06    372
84.08    408
84.1     411
84.12    445
84.14    446
84.16    468
84.18    425
84.2     388
84.22    444
84.24    394
84.26    393
84.28    340
84.3     358
84.32    424
84.34    431
84.36    448
84.38    431
84.4     412
84.42    386
84.44    358
84.46    337
84.48    255
84.5     353
84.52    397
84.54    431
84.56    460
84.58    480
84.6     482
84.62    480
84.64    540
84.66    551
84.68    584
84.7     567
84.72    566
84.74    615
84.76    609
84.78    619
84.8     568
84.82    534
84.84    509
84.86    497
84.88    476
84.9     379
84.92    423
84.94    472
84.96    541
84.98    507
85.0     486
85.02    467
85.04    455
85.06    487
85.08    428
85.1     389
85.12    358
85.14    377
85.16    385
85.18    328
85.2     331
85.22    325
85.24    349
85.26    331
85.28    348
85.3     369
85.32    343
85.34    412
85.36    408
85.38    494
85.4     471
85.42    482
85.44    487
85.46    455
85.48    525
85.5     529
85.52    463
85.54    417
85.56    398
85.58    457
85.6     448
85.62    464
85.64    478
85.66    504
85.68    502
85.7     500
85.72    423
85.74    355
85.76    336
85.78    354
85.8     435
85.82    436
85.84    424
85.86    429
85.88    411
85.9     374
85.92    344
85.94    355
85.96    372
85.98    467
86.0     565
86.02    559
86.04    558
86.06    565
86.08    535
86.1     420
86.12    396
86.14    383
86.16    409
86.18    449
86.2     478
86.22    500
86.24    545
86.26    538
86.28    517
86.3     554
86.32    639
86.34    725
86.36    844
86.38    895
86.4     1011
86.42    1026
86.44    1056
86.46    1010
86.48    990
86.5     986
86.52    1031
86.54    1050
86.56    1004
86.58    961
86.6     969
86.62    920
86.64    918
86.66    787
86.68    715
86.7     662
86.72    632
86.74    632
86.76    579
86.78    538
86.8     524
86.82    547
86.84    522
86.86    469
86.88    461
86.9     466
86.92    424
86.94    441
86.96    393
86.98    366
87.0     373
87.02    375
87.04    385
87.06    453
87.08    458
87.1     484
87.12    483
87.14    461
87.16    434
87.18    445
87.2     469
87.22    473
87.24    547
87.26    564
87.28    541
87.3     523
87.32    451
87.34    356
87.36    305
87.38    265
87.4     297
87.42    312
87.44    398
87.46    400
87.48    448
87.5     435
87.52    360
87.54    331
87.56    350
87.58    339
87.6     351
87.62    425
87.64    525
87.66    589
87.68    652
87.7     648
87.72    594
87.74    489
87.76    434
87.78    359
87.8     303
87.82    372
87.84    412
87.86    465
87.88    452
87.9     390
87.92    275
87.94    169
87.96    90
87.98    39
88.0     67
88.02    133
88.04    190
88.06    231
88.08    240
88.1     229
88.12    181
88.14    155
88.16    202
88.18    300
88.2     421
88.22    474
88.24    546
88.26    643
88.28    636
88.3     596
88.32    459
88.34    401
88.36    377
88.38    387
88.4     419
88.42    435
88.44    473
88.46    486
88.48    378
88.5     356
88.52    332
88.54    323
88.56    332
88.58    450
88.6     547
88.62    541
88.64    554
88.66    471
88.68    346
88.7     310
88.72    307
88.74    262
88.76    335
88.78    364
88.8     365
88.82    368
88.84    438
88.86    355
88.88    353
88.9     405
88.92    402
88.94    397
88.96    425
88.98    419
89.0     395
89.02    389
89.04    319
89.06    295
89.08    396
89.1     403
89.12    387
89.14    419
89.16    451
89.18    455
89.2     437
89.22    381
89.24    270
89.26    263
89.28    292
89.3     255
89.32    329
89.34    339
89.36    322
89.38    349
89.4     387
89.42    388
89.44    341
89.46    356
89.48    357
89.5     399
89.52    447
89.54    402
89.56    385
89.58    426
89.6     369
89.62    376
89.64    406
89.66    389
89.68    359
89.7     368
89.72    387
89.74    422
89.76    455
89.78    449
89.8     394
89.82    453
89.84    443
89.86    440
89.88    464
89.9     444
89.92    443
89.94    424
89.96    393
89.98    394
90.0     385
