?
5.0      643
5.02     643
5.04     835
5.06     765
5.08     807
5.1      773
5.12     803
5.14     812
5.16     848
5.18     829
5.2      827
5.22     812
5.24     817
5.26     802
5.28     793
5.3      788
5.32     799
5.34     804
5.36     830
5.38     810
5.4      837
5.42     815
5.44     869
5.46     920
5.48     889
5.5      912
5.52     887
5.54     870
5.56     853
5.58     857
5.6      856
5.62     874
5.64     922
5.66     956
5.68     928
5.7      960
5.72     917
5.74     906
5.76     894
5.78     878
5.8      876
5.82     906
5.84     925
5.86     937
5.88     961
5.9      961
5.92     939
5.94     944
5.96     947
5.98     926
6.0      940
6.02     970
6.04     999
6.06     1008
6.08     1040
6.1      1034
6.12     996
6.14     1022
6.16     1059
6.18     1007
6.2      1009
6.22     1035
6.24     1073
6.26     1060
6.28     1067
6.3      1057
6.32     1007
6.34     1085
6.36     1089
6.38     1044
6.4      1076
6.42     1108
6.44     1131
6.46     1090
6.48     1092
6.5      1066
6.52     1017
6.54     1038
6.56     973
6.58     968
6.6      946
6.62     990
6.64     995
6.66     1016
6.68     1039
6.7      1051
6.72     1022
6.74     1074
6.76     1052
6.78     1052
6.8      1056
6.82     1085
6.84     1074
6.86     1103
6.88     1097
6.9      1094
6.92     1100
6.94     1144
6.96     1122
6.98     1111
7.0      1119
7.02     1101
7.04     1057
7.06     1074
7.08     993
7.1      1038
7.12     1057
7.14     1078
7.16     1123
7.18     1139
7.2      1143
7.22     1150
7.24     1135
7.26     1139
7.28     1061
7.3      1107
7.32     1098
7.34     1125
7.36     1135
7.38     1125
7.4      1111
7.42     1136
7.44     1132
7.46     1136
7.48     1083
7.5      1075
7.52     1109
7.54     1137
7.56     1146
7.58     1214
7.6      1188
7.62     1259
7.64     1218
7.66     1254
7.68     1207
7.7      1211
7.72     1204
7.74     1200
7.76     1201
7.78     1242
7.8      1228
7.82     1252
7.84     1193
7.86     1227
7.88     1175
7.9      1198
7.92     1137
7.94     1161
7.96     1176
7.98     1204
8.0      1239
8.02     1200
8.04     1192
8.06     1183
8.08     1144
8.1      1168
8.12     1165
8.14     1218
8.16     1224
8.18     1202
8.2      1174
8.22     1125
8.24     1088
8.26     1111
8.28     1107
8.3      1168
8.32     1204
8.34     1260
8.36     1289
8.38     1269
8.4      1258
8.42     1272
8.44     1262
8.46     1270
8.48     1305
8.5      1301
8.52     1269
8.54     1263
8.56     1251
8.58     1222
8.6      1229
8.62     1243
8.64     1229
8.66     1203
8.68     1243
8.7      1229
8.72     1235
8.74     1217
8.76     1249
8.78     1244
8.8      1243
8.82     1243
8.84     1233
8.86     1252
8.88     1271
8.9      1323
8.92     1342
8.94     1311
8.96     1307
8.98     1263
9.0      1255
9.02     1257
9.04     1249
9.06     1266
9.08     1286
9.1      1324
9.12     1264
9.14     1218
9.16     1206
9.18     1167
9.2      1206
9.22     1205
9.24     1170
9.26     1196
9.28     1223
9.3      1214
9.32     1152
9.34     1146
9.36     1145
9.38     1153
9.4      1173
9.42     1201
9.44     1196
9.46     1247
9.48     1245
9.5      1246
9.52     1198
9.54     1207
9.56     1158
9.58     1167
9.6      1126
9.62     1148
9.64     1138
9.66     1140
9.68     1129
9.7      1180
9.72     1146
9.74     1186
9.76     1105
9.78     1180
9.8      1139
9.82     1200
9.84     1198
9.86     1187
9.88     1174
9.9      1202
9.92     1148
9.94     1135
9.96     1076
9.98     1112
10.0     1088
10.02    1159
10.04    1158
10.06    1154
10.08    1165
10.1     1194
10.12    1176
10.14    1140
10.16    1139
10.18    1165
10.2     1198
10.22    1173
10.24    1220
10.26    1206
10.28    1186
10.3     1191
10.32    1147
10.34    1103
10.36    1140
10.38    1117
10.4     1130
10.42    1107
10.44    1145
10.46    1143
10.48    1128
10.5     1209
10.52    1174
10.54    1152
10.56    1201
10.58    1195
10.6     1253
10.62    1289
10.64    1250
10.66    1255
10.68    1242
10.7     1271
10.72    1216
10.74    1190
10.76    1175
10.78    1145
10.8     1158
10.82    1113
10.84    1051
10.86    1084
10.88    1130
10.9     1163
10.92    1178
10.94    1158
10.96    1127
10.98    1155
11.0     1183
11.02    1177
11.04    1236
11.06    1318
11.08    1323
11.1     1272
11.12    1219
11.14    1207
11.16    1146
11.18    1156
11.2     1159
11.22    1160
11.24    1198
11.26    1212
11.28    1162
11.3     1135
11.32    1159
11.34    1210
11.36    1184
11.38    1198
11.4     1223
11.42    1207
11.44    1206
11.46    1212
11.48    1186
11.5     1151
11.52    1177
11.54    1174
11.56    1198
11.58    1221
11.6     1289
11.62    1313
11.64    1330
11.66    1366
11.68    1317
11.7     1254
11.72    1226
11.74    1205
11.76    1256
11.78    1245
11.8     1289
11.82    1305
11.84    1307
11.86    1301
11.88    1217
11.9     1210
11.92    1201
11.94    1247
11.96    1224
11.98    1191
12.0     1222
12.02    1229
12.04    1236
12.06    1231
12.08    1223
12.1     1290
12.12    1341
12.14    1368
12.16    1321
12.18    1307
12.2     1296
12.22    1235
12.24    1226
12.26    1181
12.28    1205
12.3     1234
12.32    1215
12.34    1259
12.36    1249
12.38    1239
12.4     1270
12.42    1248
12.44    1286
12.46    1234
12.48    1246
12.5     1244
12.52    1226
12.54    1224
12.56    1184
12.58    1185
12.6     1229
12.62    1293
12.64    1308
12.66    1284
12.68    1272
12.7     1305
12.72    1328
12.74    1309
12.76    1311
12.78    1310
12.8     1290
12.82    1330
12.84    1290
12.86    1291
12.88    1244
12.9     1253
12.92    1227
12.94    1250
12.96    1293
12.98    1288
13.0     1254
13.02    1305
13.04    1331
13.06    1341
13.08    1352
13.1     1323
13.12    1305
13.14    1283
13.16    1357
13.18    1325
13.2     1290
13.22    1379
13.24    1373
13.26    1295
13.28    1303
13.3     1319
13.32    1338
13.34    1319
13.36    1389
13.38    1372
13.4     1359
13.42    1369
13.44    1260
13.46    1206
13.48    1251
13.5     1340
13.52    1374
13.54    1374
13.56    1374
13.58    1368
13.6     1308
13.62    1242
13.64    1252
13.66    1291
13.68    1309
13.7     1354
13.72    1378
13.74    1313
13.76    1326
13.78    1313
13.8     1282
13.82    1316
13.84    1371
13.86    1389
13.88    1331
13.9     1335
13.92    1314
13.94    1262
13.96    1281
13.98    1230
14.0     1228
14.02    1256
14.04    1279
14.06    1320
14.08    1254
14.1     1314
14.12    1340
14.14    1291
14.16    1264
14.18    1305
14.2     1330
14.22    1296
14.24    1320
14.26    1326
14.28    1292
14.3     1333
14.32    1323
14.34    1302
14.36    1310
14.38    1344
14.4     1347
14.42    1348
14.44    1377
14.46    1329
14.48    1297
14.5     1286
14.52    1297
14.54    1336
14.56    1297
14.58    1282
14.6     1313
14.62    1270
14.64    1303
14.66    1272
14.68    1274
14.7     1317
14.72    1304
14.74    1356
14.76    1354
14.78    1328
14.8     1312
14.82    1322
14.84    1415
14.86    1415
14.88    1429
14.9     1513
14.92    1483
14.94    1520
14.96    1470
14.98    1417
15.0     1431
15.02    1447
15.04    1413
15.06    1358
15.08    1312
15.1     1325
15.12    1242
15.14    1233
15.16    1263
15.18    1310
15.2     1361
15.22    1381
15.24    1369
15.26    1379
15.28    1364
15.3     1313
15.32    1312
15.34    1363
15.36    1360
15.38    1336
15.4     1342
15.42    1352
15.44    1294
15.46    1261
15.48    1347
15.5     1390
15.52    1407
15.54    1424
15.56    1441
15.58    1453
15.6     1424
15.62    1447
15.64    1369
15.66    1348
15.68    1445
15.7     1449
15.72    1353
15.74    1380
15.76    1407
15.78    1406
15.8     1347
15.82    1427
15.84    1493
15.86    1540
15.88    1518
15.9     1467
15.92    1514
15.94    1616
15.96    1715
15.98    1788
16.0     1818
16.02    1961
16.04    2077
16.06    2176
16.08    2150
16.1     2185
16.12    2360
16.14    2516
16.16    2680
16.18    2847
16.2     3055
16.22    3316
16.24    3655
16.26    4191
16.28    4690
16.3     5279
16.32    6089
16.34    7084
16.36    8307
16.38    9803
16.4     11626
16.42    14019
16.44    17090
16.46    20977
16.48    25809
16.5     31215
16.52    36818
16.54    41475
16.56    44203
16.58    44112
16.6     41142
16.62    35824
16.64    28987
16.66    21870
16.68    15676
16.7     10799
16.72    7595
16.74    5752
16.76    4794
16.78    4047
16.8     3565
16.82    3201
16.84    2917
16.86    2656
16.88    2485
16.9     2297
16.92    2120
16.94    2078
16.96    2010
16.98    1893
17.0     1929
17.02    1898
17.04    1845
17.06    1748
17.08    1723
17.1     1679
17.12    1600
17.14    1643
17.16    1627
17.18    1615
17.2     1629
17.22    1589
17.24    1578
17.26    1575
17.28    1563
17.3     1444
17.32    1388
17.34    1459
17.36    1503
17.38    1480
17.4     1516
17.42    1532
17.44    1536
17.46    1519
17.48    1438
17.5     1352
17.52    1266
17.54    1233
17.56    1272
17.58    1278
17.6     1309
17.62    1334
17.64    1336
17.66    1324
17.68    1323
17.7     1371
17.72    1328
17.74    1276
17.76    1297
17.78    1273
17.8     1285
17.82    1253
17.84    1196
17.86    1179
17.88    1242
17.9     1251
17.92    1319
17.94    1298
17.96    1339
17.98    1399
18.0     1454
18.02    1339
18.04    1245
18.06    1257
18.08    1256
18.1     1142
18.12    1103
18.14    1063
18.16    1105
18.18    1166
18.2     1142
18.22    1097
18.24    1120
18.26    1204
18.28    1210
18.3     1182
18.32    1137
18.34    1155
18.36    1168
18.38    1190
18.4     1157
18.42    1154
18.44    1149
18.46    1110
18.48    1055
18.5     1045
18.52    1012
18.54    1017
18.56    1042
18.58    1076
18.6     1098
18.62    1073
18.64    1074
18.66    1048
18.68    1013
18.7     1070
18.72    1148
18.74    1211
18.76    1235
18.78    1235
18.8     1249
18.82    1192
18.84    1189
18.86    1184
18.88    1154
18.9     1211
18.92    1293
18.94    1295
18.96    1240
18.98    1202
19.0     1153
19.02    1084
19.04    1050
19.06    1029
19.08    1047
19.1     1081
19.12    1136
19.14    1127
19.16    1093
19.18    1071
19.2     967
19.22    907
19.24    929
19.26    950
19.28    1007
19.3     992
19.32    1013
19.34    1043
19.36    1080
19.38    1086
19.4     1028
19.42    1028
19.44    1061
19.46    1102
19.48    1093
19.5     1050
19.52    1048
19.54    1031
19.56    1010
19.58    1026
19.6     1023
19.62    990
19.64    994
19.66    1018
19.68    991
19.7     959
19.72    940
19.74    906
19.76    885
19.78    935
19.8     956
19.82    963
19.84    965
19.86    988
19.88    974
19.9     897
19.92    913
19.94    899
19.96    873
19.98    969
20.0     986
20.02    976
20.04    913
20.06    971
20.08    947
20.1     950
20.12    995
20.14    952
20.16    937
20.18    937
20.2     897
20.22    873
20.24    843
20.26    919
20.28    914
20.3     925
20.32    904
20.34    831
20.36    811
20.38    832
20.4     851
20.42    878
20.44    905
20.46    939
20.48    895
20.5     902
20.52    927
20.54    873
20.56    909
20.58    926
20.6     895
20.62    876
20.64    855
20.66    892
20.68    911
20.7     979
20.72    939
20.74    917
20.76    904
20.78    887
20.8     879
20.82    832
20.84    805
20.86    869
20.88    927
20.9     933
20.92    899
20.94    926
20.96    944
20.98    922
21.0     898
21.02    870
21.04    857
21.06    897
21.08    914
21.1     865
21.12    867
21.14    810
21.16    870
21.18    870
21.2     920
21.22    893
21.24    834
21.26    857
21.28    815
21.3     824
21.32    803
21.34    772
21.36    865
21.38    888
21.4     929
21.42    887
21.44    830
21.46    845
21.48    792
21.5     831
21.52    801
21.54    830
21.56    864
21.58    840
21.6     864
21.62    823
21.64    796
21.66    814
21.68    811
21.7     821
21.72    834
21.74    858
21.76    837
21.78    797
21.8     745
21.82    737
21.84    760
21.86    795
21.88    768
21.9     743
21.92    742
21.94    734
21.96    671
21.98    688
22.0     706
22.02    818
22.04    874
22.06    915
22.08    872
22.1     845
22.12    793
22.14    774
22.16    749
22.18    837
22.2     872
22.22    887
22.24    853
22.26    820
22.28    735
22.3     656
22.32    641
22.34    715
22.36    810
22.38    843
22.4     825
22.42    771
22.44    776
22.46    764
22.48    700
22.5     645
22.52    662
22.54    763
22.56    813
22.58    772
22.6     764
22.62    735
22.64    803
22.66    767
22.68    700
22.7     669
22.72    690
22.74    800
22.76    806
22.78    797
22.8     761
22.82    721
22.84    716
22.86    654
22.88    664
22.9     634
22.92    656
22.94    651
22.96    645
22.98    656
23.0     662
23.02    705
23.04    698
23.06    764
23.08    827
23.1     799
23.12    772
23.14    692
23.16    671
23.18    684
23.2     689
23.22    723
23.24    671
23.26    737
23.28    721
23.3     775
23.32    807
23.34    784
23.36    801
23.38    815
23.4     832
23.42    818
23.44    736
23.46    700
23.48    630
23.5     720
23.52    801
23.54    770
23.56    741
23.58    730
23.6     798
23.62    821
23.64    789
23.66    806
23.68    796
23.7     874
23.72    829
23.74    728
23.76    587
23.78    542
23.8     556
23.82    651
23.84    694
23.86    774
23.88    748
23.9     757
23.92    696
23.94    733
23.96    648
23.98    661
24.0     648
24.02    692
24.04    702
24.06    710
24.08    694
24.1     701
24.12    683
24.14    704
24.16    660
24.18    658
24.2     600
24.22    571
24.24    550
24.26    594
24.28    602
24.3     584
24.32    596
24.34    676
24.36    685
24.38    662
24.4     648
24.42    680
24.44    664
24.46    710
24.48    719
24.5     769
24.52    833
24.54    833
24.56    738
24.58    711
24.6     709
24.62    714
24.64    622
24.66    577
24.68    559
24.7     619
24.72    596
24.74    571
24.76    571
24.78    697
24.8     817
24.82    878
24.84    835
24.86    785
24.88    692
24.9     682
24.92    604
24.94    601
24.96    585
24.98    673
25.0     746
25.02    808
25.04    762
25.06    727
25.08    637
25.1     586
25.12    577
25.14    657
25.16    686
25.18    682
25.2     740
25.22    746
25.24    716
25.26    687
25.28    656
25.3     578
25.32    605
25.34    623
25.36    619
25.38    610
25.4     648
25.42    625
25.44    664
25.46    641
25.48    637
25.5     603
25.52    627
25.54    609
25.56    658
25.58    595
25.6     581
25.62    574
25.64    630
25.66    624
25.68    637
25.7     639
25.72    651
25.74    625
25.76    622
25.78    589
25.8     632
25.82    634
25.84    670
25.86    692
25.88    727
25.9     717
25.92    704
25.94    659
25.96    614
25.98    598
26.0     575
26.02    609
26.04    638
26.06    664
26.08    680
26.1     706
26.12    721
26.14    655
26.16    597
26.18    516
26.2     523
26.22    542
26.24    555
26.26    563
26.28    586
26.3     643
26.32    619
26.34    604
26.36    600
26.38    580
26.4     617
26.42    610
26.44    618
26.46    645
26.48    645
26.5     639
26.52    616
26.54    578
26.56    541
26.58    552
26.6     572
26.62    579
26.64    561
26.66    557
26.68    580
26.7     610
26.72    625
26.74    521
26.76    481
26.78    464
26.8     430
26.82    448
26.84    449
26.86    567
26.88    691
26.9     784
26.92    809
26.94    713
26.96    645
26.98    530
27.0     456
27.02    454
27.04    415
27.06    504
27.08    529
27.1     555
27.12    585
27.14    522
27.16    518
27.18    525
27.2     608
27.22    579
27.24    553
27.26    610
27.28    614
27.3     587
27.32    577
27.34    534
27.36    545
27.38    608
27.4     608
27.42    556
27.44    583
27.46    646
27.48    665
27.5     622
27.52    622
27.54    551
27.56    516
27.58    514
27.6     459
27.62    545
27.64    634
27.66    736
27.68    748
27.7     708
27.72    715
27.74    609
27.76    559
27.78    508
27.8     510
27.82    610
27.84    674
27.86    693
27.88    682
27.9     685
27.92    697
27.94    624
27.96    545
27.98    493
28.0     474
28.02    486
28.04    489
28.06    493
28.08    513
28.1     568
28.12    589
28.14    558
28.16    552
28.18    530
28.2     569
28.22    636
28.24    641
28.26    634
28.28    607
28.3     575
28.32    558
28.34    534
28.36    561
28.38    547
28.4     571
28.42    567
28.44    529
28.46    525
28.48    546
28.5     505
28.52    534
28.54    577
28.56    653
28.58    704
28.6     751
28.62    765
28.64    744
28.66    797
28.68    778
28.7     706
28.72    636
28.74    650
28.76    660
28.78    656
28.8     686
28.82    641
28.84    633
28.86    633
28.88    579
28.9     576
28.92    561
28.94    656
28.96    710
28.98    719
29.0     752
29.02    734
29.04    703
29.06    601
29.08    530
29.1     479
29.12    461
29.14    469
29.16    474
29.18    489
29.2     524
29.22    582
29.24    622
29.26    620
29.28    626
29.3     625
29.32    588
29.34    568
29.36    561
29.38    590
29.4     570
29.42    653
29.44    682
29.46    676
29.48    657
29.5     602
29.52    525
29.54    536
29.56    506
29.58    507
29.6     495
29.62    579
29.64    615
29.66    646
29.68    630
29.7     589
29.72    602
29.74    684
29.76    684
29.78    706
29.8     696
29.82    656
29.84    590
29.86    510
29.88    468
29.9     496
29.92    579
29.94    713
29.96    697
29.98    647
30.0     578
30.02    509
30.04    476
30.06    521
30.08    569
30.1     646
30.12    704
30.14    704
30.16    650
30.18    600
30.2     606
30.22    666
30.24    715
30.26    781
30.28    729
30.3     694
30.32    642
30.34    536
30.36    565
30.38    588
30.4     627
30.42    692
30.44    730
30.46    726
30.48    625
30.5     534
30.52    507
30.54    505
30.56    602
30.58    685
30.6     679
30.62    699
30.64    630
30.66    542
30.68    460
30.7     387
30.72    433
30.74    457
30.76    542
30.78    644
30.8     623
30.82    665
30.84    595
30.86    564
30.88    522
30.9     484
30.92    489
30.94    517
30.96    616
30.98    678
31.0     697
31.02    696
31.04    594
31.06    562
31.08    497
31.1     497
31.12    506
31.14    558
31.16    624
31.18    610
31.2     636
31.22    635
31.24    610
31.26    630
31.28    577
31.3     593
31.32    585
31.34    608
31.36    652
31.38    620
31.4     667
31.42    662
31.44    627
31.46    628
31.48    573
31.5     579
31.52    617
31.54    682
31.56    730
31.58    750
31.6     765
31.62    691
31.64    656
31.66    655
31.68    552
31.7     585
31.72    641
31.74    646
31.76    690
31.78    717
31.8     704
31.82    696
31.84    700
31.86    662
31.88    662
31.9     697
31.92    647
31.94    621
31.96    614
31.98    584
32.0     637
32.02    708
32.04    714
32.06    743
32.08    729
32.1     684
32.12    675
32.14    723
32.16    779
32.18    853
32.2     962
32.22    977
32.24    898
32.26    854
32.28    726
32.3     699
32.32    707
32.34    753
32.36    806
32.38    847
32.4     844
32.42    792
32.44    727
32.46    665
32.48    639
32.5     645
32.52    678
32.54    769
32.56    780
32.58    745
32.6     715
32.62    641
32.64    606
32.66    586
32.68    632
32.7     659
32.72    738
32.74    803
32.76    769
32.78    757
32.8     770
32.82    776
32.84    787
32.86    792
32.88    781
32.9     765
32.92    810
32.94    814
32.96    817
32.98    863
33.0     863
33.02    880
33.04    867
33.06    865
33.08    830
33.1     861
33.12    852
33.14    855
33.16    924
33.18    945
33.2     977
33.22    1046
33.24    1148
33.26    1230
33.28    1341
33.3     1456
33.32    1566
33.34    1828
33.36    2146
33.38    2607
33.4     3233
33.42    3926
33.44    4855
33.46    5843
33.48    6893
33.5     7968
33.52    8898
33.54    9662
33.56    9992
33.58    9913
33.6     9268
33.62    8163
33.64    6925
33.66    5576
33.68    4318
33.7     3354
33.72    2622
33.74    2200
33.76    1914
33.78    1706
33.8     1499
33.82    1333
33.84    1210
33.86    1134
33.88    1056
33.9     1012
33.92    988
33.94    917
33.96    899
33.98    886
34.0     848
34.02    871
34.04    876
34.06    885
34.08    916
34.1     922
34.12    879
34.14    824
34.16    841
34.18    839
34.2     869
34.22    914
34.24    903
34.26    853
34.28    768
34.3     686
34.32    599
34.34    559
34.36    634
34.38    673
34.4     734
34.42    772
34.44    781
34.46    793
34.48    799
34.5     845
34.52    857
34.54    931
34.56    957
34.58    868
34.6     761
34.62    700
34.64    680
34.66    692
34.68    708
34.7     779
34.72    806
34.74    902
34.76    941
34.78    910
34.8     934
34.82    979
34.84    1020
34.86    1063
34.88    1120
34.9     1209
34.92    1296
34.94    1547
34.96    1888
34.98    2307
35.0     3000
35.02    3878
35.04    5053
35.06    6443
35.08    7853
35.1     9016
35.12    9791
35.14    10022
35.16    9697
35.18    8844
35.2     7652
35.22    6253
35.24    4949
35.26    3845
35.28    2925
35.3     2266
35.32    1821
35.34    1493
35.36    1311
35.38    1230
35.4     1174
35.42    1092
35.44    1015
35.46    1006
35.48    961
35.5     948
35.52    1000
35.54    979
35.56    928
35.58    890
35.6     806
35.62    713
35.64    647
35.66    698
35.68    689
35.7     694
35.72    802
35.74    876
35.76    896
35.78    923
35.8     892
35.82    831
35.84    837
35.86    848
35.88    832
35.9     869
35.92    941
35.94    996
35.96    1045
35.98    1095
36.0     1023
36.02    935
36.04    932
36.06    918
36.08    940
36.1     1035
36.12    1212
36.14    1319
36.16    1522
36.18    1665
36.2     1760
36.22    1872
36.24    2054
36.26    2294
36.28    2568
36.3     2980
36.32    3648
36.34    4561
36.36    5973
36.38    7872
36.4     10449
36.42    13471
36.44    16569
36.46    19269
36.48    21003
36.5     21531
36.52    20794
36.54    18902
36.56    16130
36.58    13018
36.6     10163
36.62    7671
36.64    5709
36.66    4286
36.68    3261
36.7     2635
36.72    2217
36.74    1993
36.76    1765
36.78    1595
36.8     1403
36.82    1260
36.84    1107
36.86    995
36.88    912
36.9     949
36.92    918
36.94    988
36.96    990
36.98    987
37.0     899
37.02    973
37.04    906
37.06    840
37.08    840
37.1     856
37.12    850
37.14    925
37.16    966
37.18    997
37.2     988
37.22    1006
37.24    935
37.26    901
37.28    867
37.3     841
37.32    942
37.34    1001
37.36    1066
37.38    1165
37.4     1212
37.42    1180
37.44    1147
37.46    1048
37.48    859
37.5     728
37.52    667
37.54    580
37.56    666
37.58    764
37.6     798
37.62    821
37.64    871
37.66    847
37.68    800
37.7     774
37.72    772
37.74    779
37.76    847
37.78    902
37.8     897
37.82    877
37.84    934
37.86    948
37.88    944
37.9     948
37.92    896
37.94    791
37.96    708
37.98    692
38.0     631
38.02    655
38.04    681
38.06    724
38.08    741
38.1     776
38.12    699
38.14    689
38.16    695
38.18    725
38.2     818
38.22    933
38.24    914
38.26    949
38.28    947
38.3     801
38.32    621
38.34    583
38.36    550
38.38    552
38.4     749
38.42    867
38.44    907
38.46    961
38.48    964
38.5     783
38.52    667
38.54    605
38.56    564
38.58    582
38.6     709
38.62    741
38.64    814
38.66    844
38.68    808
38.7     749
38.72    708
38.74    678
38.76    636
38.78    624
38.8     625
38.82    635
38.84    715
38.86    776
38.88    799
38.9     841
38.92    838
38.94    848
38.96    749
38.98    699
39.0     706
39.02    698
39.04    708
39.06    750
39.08    737
39.1     698
39.12    664
39.14    628
39.16    546
39.18    592
39.2     687
39.22    703
39.24    708
39.26    747
39.28    752
39.3     706
39.32    697
39.34    674
39.36    639
39.38    676
39.4     734
39.42    724
39.44    765
39.46    827
39.48    889
39.5     839
39.52    851
39.54    803
39.56    723
39.58    647
39.6     685
39.62    627
39.64    647
39.66    661
39.68    717
39.7     678
39.72    694
39.74    639
39.76    659
39.78    642
39.8     661
39.82    633
39.84    715
39.86    742
39.88    768
39.9     787
39.92    792
39.94    766
39.96    764
39.98    774
40.0     764
40.02    776
40.04    837
40.06    895
40.08    894
40.1     938
40.12    932
40.14    939
40.16    924
40.18    998
40.2     1058
40.22    1072
40.24    1060
40.26    1055
40.28    1033
40.3     1047
40.32    1047
40.34    1119
40.36    1156
40.38    1185
40.4     1213
40.42    1164
40.44    1071
40.46    973
40.48    929
40.5     965
40.52    1016
40.54    1136
40.56    1239
40.58    1282
40.6     1256
40.62    1202
40.64    1181
40.66    1090
40.68    1090
40.7     1168
40.72    1255
40.74    1292
40.76    1420
40.78    1389
40.8     1301
40.82    1310
40.84    1320
40.86    1318
40.88    1395
40.9     1475
40.92    1546
40.94    1578
40.96    1652
40.98    1634
41.0     1661
41.02    1795
41.04    1854
41.06    1980
41.08    2079
41.1     2186
41.12    2290
41.14    2389
41.16    2479
41.18    2656
41.2     2928
41.22    3355
41.24    3843
41.26    4446
41.28    5192
41.3     6092
41.32    7171
41.34    8547
41.36    10351
41.38    12692
41.4     15878
41.42    20207
41.44    26077
41.46    33779
41.48    43094
41.5     53066
41.52    62206
41.54    69139
41.56    72420
41.58    71424
41.6     66320
41.62    58086
41.64    48221
41.66    38309
41.68    29491
41.7     22381
41.72    16986
41.74    13095
41.76    10223
41.78    8292
41.8     6864
41.82    5847
41.84    5067
41.86    4515
41.88    4111
41.9     3691
41.92    3380
41.94    3050
41.96    2738
41.98    2537
42.0     2260
42.02    2071
42.04    1909
42.06    1879
42.08    1891
42.1     1845
42.12    1918
42.14    1893
42.16    1875
42.18    1821
42.2     1760
42.22    1686
42.24    1540
42.26    1507
42.28    1438
42.3     1361
42.32    1318
42.34    1211
42.36    1208
42.38    1181
42.4     1266
42.42    1316
42.44    1311
42.46    1360
42.48    1311
42.5     1284
42.52    1238
42.54    1127
42.56    1099
42.58    1059
42.6     1086
42.62    1081
42.64    1110
42.66    1128
42.68    1068
42.7     1141
42.72    1164
42.74    1090
42.76    1049
42.78    965
42.8     923
42.82    889
42.84    963
42.86    965
42.88    935
42.9     1067
42.92    1122
42.94    1115
42.96    1079
42.98    994
43.0     946
43.02    861
43.04    868
43.06    840
43.08    839
43.1     925
43.12    993
43.14    1028
43.16    1016
43.18    965
43.2     919
43.22    848
43.24    851
43.26    818
43.28    882
43.3     934
43.32    994
43.34    1003
43.36    1002
43.38    1012
43.4     1024
43.42    1021
43.44    1001
43.46    982
43.48    998
43.5     919
43.52    932
43.54    852
43.56    871
43.58    826
43.6     847
43.62    859
43.64    872
43.66    890
43.68    899
43.7     925
43.72    941
43.74    948
43.76    981
43.78    949
43.8     920
43.82    912
43.84    903
43.86    774
43.88    712
43.9     715
43.92    712
43.94    765
43.96    858
43.98    969
44.0     978
44.02    1008
44.04    1008
44.06    874
44.08    797
44.1     709
44.12    702
44.14    722
44.16    784
44.18    869
44.2     971
44.22    997
44.24    1024
44.26    903
44.28    852
44.3     716
44.32    681
44.34    721
44.36    739
44.38    869
44.4     903
44.42    970
44.44    1008
44.46    1022
44.48    1009
44.5     907
44.52    881
44.54    858
44.56    868
44.58    814
44.6     747
44.62    799
44.64    810
44.66    861
44.68    785
44.7     838
44.72    896
44.74    929
44.76    969
44.78    962
44.8     996
44.82    991
44.84    940
44.86    943
44.88    911
44.9     1034
44.92    1111
44.94    1216
44.96    1359
44.98    1565
45.0     1747
45.02    1945
45.04    2056
45.06    2156
45.08    2083
45.1     2010
45.12    1862
45.14    1672
45.16    1481
45.18    1296
45.2     1176
45.22    1104
45.24    989
45.26    900
45.28    818
45.3     825
45.32    864
45.34    855
45.36    874
45.38    907
45.4     909
45.42    909
45.44    858
45.46    830
45.48    853
45.5     798
45.52    797
45.54    713
45.56    684
45.58    659
45.6     639
45.62    716
45.64    791
45.66    853
45.68    905
45.7     876
45.72    905
45.74    849
45.76    819
45.78    792
45.8     839
45.82    884
45.84    954
45.86    924
45.88    943
45.9     899
45.92    824
45.94    751
45.96    699
45.98    649
46.0     663
46.02    704
46.04    780
46.06    775
46.08    877
46.1     915
46.12    880
46.14    891
46.16    901
46.18    885
46.2     930
46.22    896
46.24    832
46.26    759
46.28    796
46.3     781
46.32    680
46.34    685
46.36    671
46.38    692
46.4     726
46.42    717
46.44    772
46.46    824
46.48    884
46.5     881
46.52    842
46.54    857
46.56    803
46.58    744
46.6     653
46.62    661
46.64    690
46.66    672
46.68    646
46.7     701
46.72    762
46.74    847
46.76    852
46.78    864
46.8     941
46.82    952
46.84    976
46.86    914
46.88    863
46.9     841
46.92    770
46.94    726
46.96    645
46.98    660
47.0     725
47.02    712
47.04    757
47.06    728
47.08    715
47.1     727
47.12    726
47.14    753
47.16    749
47.18    797
47.2     865
47.22    833
47.24    768
47.26    744
47.28    721
47.3     717
47.32    728
47.34    804
47.36    898
47.38    967
47.4     964
47.42    924
47.44    914
47.46    896
47.48    758
47.5     644
47.52    606
47.54    619
47.56    655
47.58    660
47.6     715
47.62    843
47.64    907
47.66    914
47.68    899
47.7     846
47.72    799
47.74    703
47.76    667
47.78    658
47.8     726
47.82    789
47.84    860
47.86    936
47.88    1056
47.9     1043
47.92    988
47.94    894
47.96    777
47.98    722
48.0     680
48.02    636
48.04    614
48.06    625
48.08    761
48.1     806
48.12    873
48.14    930
48.16    949
48.18    987
48.2     997
48.22    965
48.24    881
48.26    803
48.28    747
48.3     670
48.32    653
48.34    642
48.36    681
48.38    698
48.4     725
48.42    757
48.44    800
48.46    816
48.48    824
48.5     833
48.52    853
48.54    887
48.56    922
48.58    868
48.6     817
48.62    835
48.64    807
48.66    770
48.68    725
48.7     709
48.72    695
48.74    709
48.76    703
48.78    672
48.8     679
48.82    736
48.84    736
48.86    738
48.88    754
48.9     770
48.92    721
48.94    727
48.96    673
48.98    635
49.0     635
49.02    628
49.04    659
49.06    679
49.08    724
49.1     730
49.12    779
49.14    853
49.16    854
49.18    894
49.2     899
49.22    808
49.24    751
49.26    702
49.28    657
49.3     619
49.32    620
49.34    652
49.36    674
49.38    731
49.4     702
49.42    682
49.44    716
49.46    796
49.48    854
49.5     918
49.52    946
49.54    929
49.56    947
49.58    898
49.6     790
49.62    665
49.64    630
49.66    587
49.68    542
49.7     523
49.72    485
49.74    493
49.76    647
49.78    683
49.8     762
49.82    827
49.84    899
49.86    919
49.88    914
49.9     909
49.92    857
49.94    835
49.96    848
49.98    797
50.0     738
50.02    730
50.04    665
50.06    685
50.08    721
50.1     715
50.12    684
50.14    758
50.16    837
50.18    898
50.2     850
50.22    884
50.24    866
50.26    892
50.28    803
50.3     757
50.32    758
50.34    834
50.36    827
50.38    817
50.4     806
50.42    820
50.44    766
50.46    711
50.48    630
50.5     661
50.52    634
50.54    642
50.56    622
50.58    645
50.6     771
50.62    789
50.64    811
50.66    845
50.68    860
50.7     857
50.72    758
50.74    659
50.76    651
50.78    641
50.8     692
50.82    679
50.84    763
50.86    849
50.88    866
50.9     882
50.92    799
50.94    772
50.96    804
50.98    783
51.0     739
51.02    730
51.04    716
51.06    754
51.08    732
51.1     697
51.12    628
51.14    703
51.16    784
51.18    811
51.2     787
51.22    802
51.24    817
51.26    922
51.28    923
51.3     844
51.32    828
51.34    854
51.36    884
51.38    801
51.4     659
51.42    626
51.44    664
51.46    736
51.48    759
51.5     785
51.52    853
51.54    925
51.56    932
51.58    877
51.6     778
51.62    802
51.64    808
51.66    763
51.68    759
51.7     755
51.72    775
51.74    846
51.76    784
51.78    799
51.8     796
51.82    769
51.84    757
51.86    731
51.88    728
51.9     775
51.92    856
51.94    888
51.96    884
51.98    912
52.0     858
52.02    790
52.04    742
52.06    744
52.08    723
52.1     714
52.12    737
52.14    800
52.16    864
52.18    905
52.2     894
52.22    927
52.24    953
52.26    1033
52.28    981
52.3     913
52.32    924
52.34    967
52.36    970
52.38    919
52.4     841
52.42    826
52.44    831
52.46    811
52.48    738
52.5     766
52.52    767
52.54    800
52.56    808
52.58    786
52.6     779
52.62    839
52.64    880
52.66    859
52.68    889
52.7     900
52.72    889
52.74    886
52.76    897
52.78    888
52.8     950
52.82    956
52.84    988
52.86    958
52.88    915
52.9     839
52.92    867
52.94    827
52.96    868
52.98    896
53.0     963
53.02    1006
53.04    1113
53.06    1108
53.08    1115
53.1     1098
53.12    1112
53.14    1056
53.16    1131
53.18    1209
53.2     1287
53.22    1463
53.24    1661
53.26    1880
53.28    2208
53.3     2397
53.32    2741
53.34    3135
53.36    3647
53.38    4183
53.4     4822
53.42    5477
53.44    6039
53.46    6453
53.48    6648
53.5     6468
53.52    6189
53.54    5659
53.56    4995
53.58    4346
53.6     3802
53.62    3261
53.64    2754
53.66    2354
53.68    2053
53.7     1792
53.72    1595
53.74    1416
53.76    1262
53.78    1216
53.8     1169
53.82    1092
53.84    1024
53.86    968
53.88    1022
53.9     1052
53.92    1024
53.94    1065
53.96    1042
53.98    1031
54.0     1060
54.02    1037
54.04    992
54.06    955
54.08    978
54.1     954
54.12    891
54.14    885
54.16    801
54.18    754
54.2     764
54.22    756
54.24    781
54.26    822
54.28    817
54.3     845
54.32    866
54.34    871
54.36    853
54.38    817
54.4     789
54.42    786
54.44    771
54.46    734
54.48    723
54.5     727
54.52    751
54.54    745
54.56    750
54.58    761
54.6     858
54.62    879
54.64    842
54.66    890
54.68    951
54.7     911
54.72    860
54.74    768
54.76    693
54.78    711
54.8     763
54.82    715
54.84    730
54.86    811
54.88    893
54.9     933
54.92    891
54.94    845
54.96    762
54.98    713
55.0     663
55.02    670
55.04    687
55.06    693
55.08    791
55.1     896
55.12    961
55.14    981
55.16    948
55.18    900
55.2     872
55.22    827
55.24    696
55.26    630
55.28    633
55.3     642
55.32    685
55.34    746
55.36    782
55.38    837
55.4     876
55.42    890
55.44    882
55.46    910
55.48    868
55.5     837
55.52    854
55.54    925
55.56    907
55.58    934
55.6     913
55.62    925
55.64    935
55.66    877
55.68    810
55.7     797
55.72    765
55.74    771
55.76    703
55.78    643
55.8     604
55.82    651
55.84    702
55.86    726
55.88    787
55.9     862
55.92    908
55.94    944
55.96    933
55.98    887
56.0     838
56.02    832
56.04    811
56.06    713
56.08    626
56.1     580
56.12    578
56.14    579
56.16    657
56.18    723
56.2     768
56.22    890
56.24    997
56.26    960
56.28    923
56.3     885
56.32    800
56.34    759
56.36    773
56.38    707
56.4     631
56.42    704
56.44    699
56.46    716
56.48    756
56.5     804
56.52    815
56.54    893
56.56    976
56.58    918
56.6     887
56.62    890
56.64    781
56.66    783
56.68    798
56.7     804
56.72    802
56.74    843
56.76    923
56.78    870
56.8     864
56.82    911
56.84    877
56.86    904
56.88    932
56.9     892
56.92    894
56.94    928
56.96    884
56.98    728
57.0     697
57.02    718
57.04    649
57.06    705
57.08    689
57.1     712
57.12    857
57.14    962
57.16    1007
57.18    945
57.2     1016
57.22    1014
57.24    968
57.26    1039
57.28    933
57.3     898
57.32    900
57.34    938
57.36    921
57.38    901
57.4     1001
57.42    1024
57.44    1034
57.46    1089
57.48    988
57.5     921
57.52    925
57.54    905
57.56    849
57.58    910
57.6     970
57.62    982
57.64    1078
57.66    1073
57.68    1039
57.7     1084
57.72    1152
57.74    1166
57.76    1221
57.78    1278
57.8     1250
57.82    1344
57.84    1444
57.86    1444
57.88    1475
57.9     1597
57.92    1670
57.94    1863
57.96    2081
57.98    2238
58.0     2395
58.02    2717
58.04    3032
58.06    3361
58.08    3786
58.1     4311
58.12    4974
58.14    5894
58.16    7008
58.18    8201
58.2     9570
58.22    11066
58.24    12427
58.26    13468
58.28    14104
58.3     14260
58.32    13861
58.34    12968
58.36    11755
58.38    10271
58.4     8757
58.42    7423
58.44    6261
58.46    5249
58.48    4418
58.5     3863
58.52    3416
58.54    3046
58.56    2804
58.58    2522
58.6     2216
58.62    2130
58.64    2023
58.66    1820
58.68    1706
58.7     1599
58.72    1536
58.74    1442
58.76    1418
58.78    1231
58.8     1118
58.82    1152
58.84    1079
58.86    1053
58.88    1137
58.9     1107
58.92    1129
58.94    1181
58.96    1172
58.98    1114
59.0     1143
59.02    1152
59.04    1077
59.06    1067
59.08    1088
59.1     1020
59.12    983
59.14    948
59.16    912
59.18    898
59.2     855
59.22    844
59.24    766
59.26    736
59.28    770
59.3     783
59.32    829
59.34    871
59.36    905
59.38    879
59.4     893
59.42    966
59.44    1002
59.46    1004
59.48    1038
59.5     1036
59.52    951
59.54    892
59.56    839
59.58    807
59.6     810
59.62    761
59.64    755
59.66    785
59.68    833
59.7     822
59.72    737
59.74    768
59.76    767
59.78    840
59.8     881
59.82    817
59.84    828
59.86    875
59.88    874
59.9     888
59.92    898
59.94    869
59.96    816
59.98    892
60.0     903
60.02    860
60.04    798
60.06    706
60.08    742
60.1     746
60.12    770
60.14    708
60.16    680
60.18    757
60.2     820
60.22    832
60.24    801
60.26    780
60.28    826
60.3     802
60.32    838
60.34    750
60.36    702
60.38    762
60.4     768
60.42    804
60.44    862
60.46    907
60.48    903
60.5     925
60.52    975
60.54    957
60.56    912
60.58    876
60.6     761
60.62    785
60.64    813
60.66    816
60.68    814
60.7     755
60.72    828
60.74    907
60.76    932
60.78    974
60.8     944
60.82    954
60.84    1003
60.86    971
60.88    962
60.9     855
60.92    827
60.94    852
60.96    871
60.98    905
61.0     845
61.02    792
61.04    780
61.06    764
61.08    743
61.1     738
61.12    718
61.14    772
61.16    794
61.18    817
61.2     832
61.22    849
61.24    870
61.26    917
61.28    941
61.3     1003
61.32    1056
61.34    1008
61.36    1014
61.38    996
61.4     959
61.42    912
61.44    896
61.46    864
61.48    879
61.5     881
61.52    931
61.54    873
61.56    909
61.58    951
61.6     964
61.62    1021
61.64    1043
61.66    1080
61.68    1111
61.7     1195
61.72    1278
61.74    1340
61.76    1354
61.78    1414
61.8     1477
61.82    1569
61.84    1594
61.86    1730
61.88    1882
61.9     2145
61.92    2486
61.94    2892
61.96    3339
61.98    3970
62.0     4769
62.02    5804
62.04    7009
62.06    8472
62.08    10093
62.1     11662
62.12    12949
62.14    13819
62.16    14237
62.18    14059
62.2     13397
62.22    12453
62.24    11303
62.26    10123
62.28    9008
62.3     7941
62.32    6885
62.34    6007
62.36    5232
62.38    4518
62.4     3939
62.42    3475
62.44    3128
62.46    2829
62.48    2514
62.5     2266
62.52    2049
62.54    1855
62.56    1638
62.58    1417
62.6     1275
62.62    1162
62.64    1121
62.66    1092
62.68    1060
62.7     1054
62.72    1106
62.74    1160
62.76    1141
62.78    1083
62.8     1124
62.82    1139
62.84    1110
62.86    1122
62.88    1119
62.9     1005
62.92    943
62.94    930
62.96    825
62.98    800
63.0     841
63.02    900
63.04    927
63.06    984
63.08    1005
63.1     928
63.12    875
63.14    932
63.16    886
63.18    880
63.2     880
63.22    884
63.24    928
63.26    920
63.28    900
63.3     818
63.32    770
63.34    819
63.36    806
63.38    880
63.4     899
63.42    945
63.44    997
63.46    1024
63.48    1010
63.5     984
63.52    913
63.54    883
63.56    819
63.58    853
63.6     732
63.62    761
63.64    783
63.66    838
63.68    848
63.7     835
63.72    849
63.74    886
63.76    878
63.78    927
63.8     839
63.82    836
63.84    821
63.86    791
63.88    777
63.9     761
63.92    812
63.94    855
63.96    885
63.98    904
64.0     859
64.02    808
64.04    824
64.06    811
64.08    806
64.1     809
64.12    828
64.14    826
64.16    841
64.18    850
64.2     824
64.22    794
64.24    819
64.26    855
64.28    848
64.3     888
64.32    950
64.34    931
64.36    944
64.38    955
64.4     920
64.42    878
64.44    888
64.46    924
64.48    948
64.5     1002
64.52    1090
64.54    1136
64.56    1176
64.58    1274
64.6     1320
64.62    1379
64.64    1519
64.66    1719
64.68    1988
64.7     2269
64.72    2615
64.74    3017
64.76    3354
64.78    3680
64.8     3933
64.82    4059
64.84    4074
64.86    4063
64.88    3926
64.9     3719
64.92    3485
64.94    3237
64.96    2979
64.98    2643
65.0     2389
65.02    2070
65.04    1787
65.06    1618
65.08    1425
65.1     1278
65.12    1246
65.14    1142
65.16    1190
65.18    1112
65.2     1113
65.22    1095
65.24    1098
65.26    1071
65.28    1050
65.3     985
65.32    1005
65.34    931
65.36    954
65.38    858
65.4     827
65.42    775
65.44    752
65.46    714
65.48    674
65.5     656
65.52    667
65.54    698
65.56    752
65.58    773
65.6     873
65.62    851
65.64    873
65.66    838
65.68    777
65.7     797
65.72    773
65.74    799
65.76    806
65.78    750
65.8     777
65.82    740
65.84    717
65.86    695
65.88    683
65.9     717
65.92    735
65.94    733
65.96    795
65.98    803
66.0     829
66.02    858
66.04    851
66.06    834
66.08    760
66.1     699
66.12    645
66.14    580
66.16    647
66.18    651
66.2     689
66.22    752
66.24    795
66.26    838
66.28    793
66.3     740
66.32    760
66.34    744
66.36    804
66.38    808
66.4     824
66.42    835
66.44    746
66.46    728
66.48    681
66.5     674
66.52    696
66.54    651
66.56    743
66.58    794
66.6     780
66.62    828
66.64    810
66.66    847
66.68    860
66.7     891
66.72    879
66.74    804
66.76    819
66.78    786
66.8     650
66.82    640
66.84    649
66.86    623
66.88    645
66.9     682
66.92    786
66.94    803
66.96    813
66.98    838
67.0     783
67.02    836
67.04    834
67.06    797
67.08    762
67.1     737
67.12    739
67.14    723
67.16    685
67.18    722
67.2     702
67.22    755
67.24    752
67.26    749
67.28    791
67.3     835
67.32    819
67.34    828
67.36    814
67.38    864
67.4     833
67.42    836
67.44    784
67.46    737
67.48    739
67.5     709
67.52    684
67.54    690
67.56    731
67.58    785
67.6     800
67.62    845
67.64    830
67.66    861
67.68    872
67.7     861
67.72    867
67.74    881
67.76    889
67.78    830
67.8     762
67.82    720
67.84    654
67.86    655
67.88    610
67.9     616
67.92    652
67.94    658
67.96    674
67.98    722
68.0     750
68.02    829
68.04    849
68.06    894
68.08    937
68.1     933
68.12    890
68.14    831
68.16    823
68.18    840
68.2     818
68.22    802
68.24    778
68.26    748
68.28    766
68.3     693
68.32    703
68.34    750
68.36    760
68.38    779
68.4     791
68.42    771
68.44    842
68.46    878
68.48    972
68.5     987
68.52    983
68.54    962
68.56    964
68.58    982
68.6     981
68.62    1001
68.64    1076
68.66    1199
68.68    1261
68.7     1267
68.72    1351
68.74    1375
68.76    1462
68.78    1532
68.8     1656
68.82    1844
68.84    2033
68.86    2255
68.88    2463
68.9     2736
68.92    3029
68.94    3251
68.96    3515
68.98    3713
69.0     3813
69.02    3790
69.04    3649
69.06    3434
69.08    3193
69.1     2902
69.12    2646
69.14    2392
69.16    2179
69.18    1934
69.2     1651
69.22    1465
69.24    1324
69.26    1237
69.28    1185
69.3     1110
69.32    1056
69.34    1031
69.36    1027
69.38    1022
69.4     996
69.42    1032
69.44    1027
69.46    1032
69.48    1023
69.5     908
69.52    829
69.54    821
69.56    774
69.58    786
69.6     822
69.62    789
69.64    811
69.66    834
69.68    860
69.7     883
69.72    891
69.74    846
69.76    800
69.78    823
69.8     813
69.82    789
69.84    840
69.86    855
69.88    892
69.9     951
69.92    978
69.94    949
69.96    885
69.98    877
70.0     838
70.02    833
70.04    776
70.06    826
70.08    869
70.1     858
70.12    886
70.14    922
70.16    939
70.18    945
70.2     964
70.22    938
70.24    922
70.26    936
70.28    893
70.3     865
70.32    935
70.34    1052
70.36    1096
70.38    1206
70.4     1358
70.42    1521
70.44    1591
70.46    1648
70.48    1726
70.5     1795
70.52    1912
70.54    1953
70.56    2020
70.58    2102
70.6     2122
70.62    2110
70.64    2013
70.66    1971
70.68    1854
70.7     1667
70.72    1556
70.74    1436
70.76    1324
70.78    1188
70.8     1069
70.82    1090
70.84    1044
70.86    1110
70.88    1100
70.9     1111
70.92    1137
70.94    1112
70.96    1041
70.98    984
71.0     969
71.02    897
71.04    868
71.06    824
71.08    749
71.1     712
71.12    654
71.14    661
71.16    722
71.18    746
71.2     766
71.22    779
71.24    903
71.26    886
71.28    912
71.3     942
71.32    937
71.34    934
71.36    874
71.38    799
71.4     725
71.42    709
71.44    684
71.46    663
71.48    723
71.5     767
71.52    764
71.54    758
71.56    785
71.58    851
71.6     899
71.62    935
71.64    954
71.66    912
71.68    971
71.7     959
71.72    915
71.74    855
71.76    843
71.78    864
71.8     834
71.82    813
71.84    804
71.86    769
71.88    817
71.9     814
71.92    811
71.94    822
71.96    848
71.98    896
72.0     935
72.02    978
72.04    1029
72.06    1071
72.08    1118
72.1     1141
72.12    1185
72.14    1205
72.16    1170
72.18    1150
72.2     1120
72.22    1099
72.24    1150
72.26    1185
72.28    1279
72.3     1371
72.32    1530
72.34    1734
72.36    1913
72.38    2121
72.4     2329
72.42    2623
72.44    2975
72.46    3360
72.48    3769
72.5     4138
72.52    4478
72.54    4703
72.56    4780
72.58    4731
72.6     4545
72.62    4312
72.64    4039
72.66    3701
72.68    3375
72.7     3052
72.72    2700
72.74    2433
72.76    2247
72.78    2007
72.8     1810
72.82    1658
72.84    1510
72.86    1385
72.88    1314
72.9     1203
72.92    1118
72.94    1110
72.96    1118
72.98    995
73.0     912
73.02    889
73.04    936
73.06    1032
73.08    1073
73.1     1110
73.12    1113
73.14    1124
73.16    1151
73.18    1077
73.2     1041
73.22    1060
73.24    1090
73.26    1017
73.28    966
73.3     918
73.32    860
73.34    901
73.36    937
73.38    999
73.4     1127
73.42    1238
73.44    1306
73.46    1277
73.48    1314
73.5     1339
73.52    1316
73.54    1335
73.56    1359
73.58    1369
73.6     1346
73.62    1270
73.64    1211
73.66    1119
73.68    1038
73.7     1018
73.72    1029
73.74    1082
73.76    1057
73.78    1006
73.8     936
73.82    912
73.84    957
73.86    881
73.88    845
73.9     901
73.92    968
73.94    998
73.96    915
73.98    940
74.0     940
74.02    955
74.04    966
74.06    883
74.08    944
74.1     1038
74.12    1152
74.14    1281
74.16    1405
74.18    1584
74.2     1723
74.22    1854
74.24    2019
74.26    2184
74.28    2360
74.3     2395
74.32    2405
74.34    2379
74.36    2308
74.38    2212
74.4     2076
74.42    1959
74.44    1864
74.46    1792
74.48    1665
74.5     1485
74.52    1373
74.54    1315
74.56    1329
74.58    1345
74.6     1348
74.62    1384
74.64    1434
74.66    1515
74.68    1610
74.7     1677
74.72    1757
74.74    1817
74.76    1953
74.78    1969
74.8     2069
74.82    2153
74.84    2253
74.86    2305
74.88    2343
74.9     2257
74.92    2197
74.94    2084
74.96    1986
74.98    1754
75.0     1652
75.02    1503
75.04    1361
75.06    1178
75.08    1050
75.1     993
75.12    1048
75.14    1031
75.16    1022
75.18    956
75.2     964
75.22    941
75.24    879
75.26    871
75.28    915
75.3     1004
75.32    1014
75.34    933
75.36    895
75.38    877
75.4     848
75.42    818
75.44    812
75.46    838
75.48    846
75.5     808
75.52    747
75.54    643
75.56    658
75.58    719
75.6     767
75.62    804
75.64    838
75.66    852
75.68    849
75.7     816
75.72    811
75.74    765
75.76    799
75.78    807
75.8     796
75.82    768
75.84    729
75.86    784
75.88    787
75.9     774
75.92    793
75.94    772
75.96    712
75.98    617
76.0     573
76.02    579
76.04    565
76.06    621
76.08    611
76.1     628
76.12    673
76.14    672
76.16    698
76.18    699
76.2     766
76.22    782
76.24    757
76.26    805
76.28    793
76.3     829
76.32    835
76.34    811
76.36    836
76.38    777
76.4     699
76.42    582
76.44    552
76.46    587
76.48    568
76.5     642
76.52    694
76.54    734
76.56    770
76.58    765
76.6     781
76.62    781
76.64    818
76.66    868
76.68    840
76.7     850
76.72    827
76.74    745
76.76    680
76.78    669
76.8     620
76.82    604
76.84    633
76.86    696
76.88    664
76.9     716
76.92    765
76.94    800
76.96    856
76.98    827
77.0     773
77.02    783
77.04    824
77.06    851
77.08    861
77.1     899
77.12    936
77.14    971
77.16    939
77.18    822
77.2     855
77.22    901
77.24    1008
77.26    1037
77.28    1107
77.3     1270
77.32    1491
77.34    1666
77.36    1821
77.38    2022
77.4     2363
77.42    2662
77.44    2946
77.46    3173
77.48    3510
77.5     3909
77.52    4311
77.54    4590
77.56    4755
77.58    4897
77.6     4970
77.62    4863
77.64    4665
77.66    4360
77.68    4065
77.7     3753
77.72    3508
77.74    3241
77.76    2993
77.78    2829
77.8     2660
77.82    2416
77.84    2214
77.86    1993
77.88    1780
77.9     1576
77.92    1452
77.94    1350
77.96    1253
77.98    1183
78.0     1112
78.02    1058
78.04    1031
78.06    1041
78.08    1018
78.1     1031
78.12    1019
78.14    968
78.16    922
78.18    860
78.2     891
78.22    836
78.24    755
78.26    820
78.28    824
78.3     766
78.32    733
78.34    706
78.36    708
78.38    694
78.4     759
78.42    681
78.44    627
78.46    714
78.48    708
78.5     668
78.52    705
78.54    740
78.56    733
78.58    752
78.6     781
78.62    706
78.64    714
78.66    848
78.68    816
78.7     773
78.72    708
78.74    662
78.76    610
78.78    631
78.8     655
78.82    611
78.84    654
78.86    764
78.88    653
78.9     603
78.92    583
78.94    617
78.96    679
78.98    715
79.0     751
79.02    666
79.04    637
79.06    674
79.08    628
79.1     648
79.12    675
79.14    760
79.16    808
79.18    782
79.2     748
79.22    709
79.24    741
79.26    755
79.28    701
79.3     623
79.32    625
79.34    629
79.36    628
79.38    564
79.4     550
79.42    623
79.44    669
79.46    666
79.48    622
79.5     598
79.52    660
79.54    708
79.56    716
79.58    718
79.6     727
79.62    800
79.64    743
79.66    720
79.68    673
79.7     658
79.72    653
79.74    670
79.76    605
79.78    628
79.8     686
79.82    747
79.84    700
79.86    736
79.88    785
79.9     835
79.92    828
79.94    798
79.96    809
79.98    810
80.0     891
80.02    844
80.04    834
80.06    862
80.08    894
80.1     865
80.12    818
80.14    792
80.16    767
80.18    785
80.2     834
80.22    840
80.24    866
80.26    873
80.28    840
80.3     769
80.32    641
80.34    599
80.36    542
80.38    503
80.4     555
80.42    606
80.44    613
80.46    600
80.48    620
80.5     605
80.52    561
80.54    656
80.56    690
80.58    713
80.6     778
80.62    736
80.64    656
80.66    659
80.68    677
80.7     664
80.72    666
80.74    692
80.76    682
80.78    667
80.8     580
80.82    439
80.84    419
80.86    529
80.88    594
80.9     650
80.92    694
80.94    720
80.96    728
80.98    744
81.0     757
81.02    758
81.04    792
81.06    893
81.08    848
81.1     749
81.12    678
81.14    567
81.16    516
81.18    500
81.2     518
81.22    539
81.24    548
81.26    580
81.28    570
81.3     518
81.32    488
81.34    468
81.36    543
81.38    548
81.4     643
81.42    724
81.44    772
81.46    780
81.48    839
81.5     844
81.52    765
81.54    759
81.56    711
81.58    687
81.6     719
81.62    696
81.64    650
81.66    624
81.68    628
81.7     665
81.72    576
81.74    478
81.76    442
81.78    476
81.8     554
81.82    612
81.84    644
81.86    697
81.88    749
81.9     797
81.92    741
81.94    686
81.96    726
81.98    811
82.0     862
82.02    809
82.04    726
82.06    648
82.08    592
82.1     542
82.12    482
82.14    523
82.16    569
82.18    635
82.2     579
82.22    469
82.24    428
82.26    434
82.28    429
82.3     482
82.32    583
82.34    713
82.36    799
82.38    817
82.4     795
82.42    737
82.44    709
82.46    718
82.48    687
82.5     723
82.52    809
82.54    846
82.56    834
82.58    731
82.6     711
82.62    645
82.64    601
82.66    617
82.68    610
82.7     676
82.72    741
82.74    730
82.76    697
82.78    625
82.8     603
82.82    517
82.84    537
82.86    568
82.88    604
82.9     626
82.92    578
82.94    516
82.96    486
82.98    479
83.0     485
83.02    520
83.04    643
83.06    714
83.08    795
83.1     779
83.12    745
83.14    758
83.16    717
83.18    745
83.2     746
83.22    751
83.24    724
83.26    692
83.28    652
83.3     605
83.32    574
83.34    616
83.36    567
83.38    565
83.4     550
83.42    572
83.44    542
83.46    564
83.48    579
83.5     594
83.52    547
83.54    538
83.56    489
83.58    466
83.6     499
83.62    528
83.64    584
83.66    677
83.68    733
83.7     766
83.72    726
83.74    766
83.76    789
83.78    829
83.8     831
83.82    854
83.84    894
83.86    857
83.88    782
83.9     720
83.92    633
83.94    609
83.96    587
83.98    634
84.0     616
84.02    682
84.04    677
84.06    642
84.08    572
84.1     511
84.12    487
84.14    472
84.16    496
84.18    559
84.2     592
84.22    641
84.24    655
84.26    633
84.28    623
84.3     657
84.32    699
84.34    737
84.36    789
84.38    819
84.4     834
84.42    769
84.44    694
84.46    663
84.48    607
84.5     596
84.52    596
84.54    637
84.56    655
84.58    649
84.6     593
84.62    531
84.64    499
84.66    537
84.68    512
84.7     566
84.72    672
84.74    788
84.76    826
84.78    837
84.8     818
84.82    850
84.84    828
84.86    857
84.88    822
84.9     813
84.92    837
84.94    907
84.96    867
84.98    803
85.0     722
85.02    679
85.04    585
85.06    550
85.08    474
85.1     460
85.12    442
85.14    524
85.16    556
85.18    520
85.2     481
85.22    537
85.24    546
85.26    531
85.28    536
85.3     590
85.32    597
85.34    690
85.36    689
85.38    731
85.4     755
85.42    773
85.44    802
85.46    771
85.48    723
85.5     666
85.52    635
85.54    629
85.56    538
85.58    579
85.6     504
85.62    464
85.64    510
85.66    517
85.68    543
85.7     515
85.72    623
85.74    701
85.76    733
85.78    739
85.8     670
85.82    666
85.84    647
85.86    657
85.88    711
85.9     692
85.92    758
85.94    712
85.96    732
85.98    692
86.0     657
86.02    633
86.04    646
86.06    693
86.08    715
86.1     637
86.12    605
86.14    574
86.16    627
86.18    629
86.2     694
86.22    705
86.24    850
86.26    915
86.28    954
86.3     919
86.32    967
86.34    1055
86.36    1156
86.38    1221
86.4     1286
86.42    1306
86.44    1369
86.46    1367
86.48    1369
86.5     1235
86.52    1158
86.54    1091
86.56    1054
86.58    1012
86.6     993
86.62    949
86.64    928
86.66    890
86.68    860
86.7     812
86.72    767
86.74    749
86.76    740
86.78    754
86.8     808
86.82    796
86.84    779
86.86    702
86.88    661
86.9     661
86.92    702
86.94    740
86.96    746
86.98    752
87.0     835
87.02    798
87.04    771
87.06    671
87.08    615
87.1     527
87.12    518
87.14    506
87.16    496
87.18    489
87.2     537
87.22    572
87.24    631
87.26    638
87.28    658
87.3     625
87.32    640
87.34    685
87.36    724
87.38    763
87.4     767
87.42    787
87.44    759
87.46    706
87.48    606
87.5     610
87.52    638
87.54    688
87.56    722
87.58    726
87.6     697
87.62    686
87.64    593
87.66    492
87.68    435
87.7     490
87.72    506
87.74    534
87.76    591
87.78    643
87.8     654
87.82    668
87.84    676
87.86    703
87.88    734
87.9     764
87.92    737
87.94    776
87.96    809
87.98    786
88.0     763
88.02    767
88.04    696
88.06    637
88.08    547
88.1     521
88.12    482
88.14    524
88.16    568
88.18    644
88.2     681
88.22    636
88.24    538
88.26    562
88.28    482
88.3     499
88.32    518
88.34    613
88.36    686
88.38    721
88.4     687
88.42    659
88.44    610
88.46    583
88.48    557
88.5     605
88.52    644
88.54    659
88.56    661
88.58    640
88.6     637
88.62    606
88.64    546
88.66    498
88.68    540
88.7     580
88.72    630
88.74    659
88.76    692
88.78    674
88.8     674
88.82    667
88.84    650
88.86    587
88.88    587
88.9     630
88.92    667
88.94    731
88.96    716
88.98    715
89.0     683
89.02    678
89.04    677
89.06    670
89.08    648
89.1     588
89.12    574
89.14    638
89.16    607
89.18    599
89.2     595
89.22    618
89.24    647
89.26    653
89.28    615
89.3     583
89.32    571
89.34    568
89.36    575
89.38    625
89.4     698
89.42    663
89.44    659
89.46    720
89.48    728
89.5     688
89.52    620
89.54    582
89.56    595
89.58    634
89.6     673
89.62    631
89.64    637
89.66    643
89.68    577
89.7     560
89.72    550
89.74    556
89.76    548
89.78    608
89.8     601
89.82    576
89.84    592
89.86    535
89.88    527
89.9     635
89.92    716
89.94    847
89.96    879
89.98    892
90.0     898
