?
5.0      1054
5.02     1054
5.04     1371
5.06     1341
5.08     1400
5.1      1380
5.12     1395
5.14     1344
5.16     1354
5.18     1318
5.2      1286
5.22     1294
5.24     1295
5.26     1297
5.28     1291
5.3      1285
5.32     1304
5.34     1323
5.36     1354
5.38     1330
5.4      1304
5.42     1309
5.44     1298
5.46     1305
5.48     1297
5.5      1313
5.52     1339
5.54     1356
5.56     1352
5.58     1347
5.6      1336
5.62     1313
5.64     1304
5.66     1319
5.68     1333
5.7      1362
5.72     1375
5.74     1369
5.76     1393
5.78     1374
5.8      1374
5.82     1364
5.84     1377
5.86     1417
5.88     1427
5.9      1419
5.92     1380
5.94     1356
5.96     1309
5.98     1256
6.0      1236
6.02     1234
6.04     1250
6.06     1287
6.08     1301
6.1      1312
6.12     1320
6.14     1343
6.16     1339
6.18     1313
6.2      1270
6.22     1289
6.24     1276
6.26     1263
6.28     1273
6.3      1268
6.32     1322
6.34     1330
6.36     1342
6.38     1323
6.4      1328
6.42     1345
6.44     1304
6.46     1281
6.48     1286
6.5      1277
6.52     1296
6.54     1242
6.56     1263
6.58     1240
6.6      1262
6.62     1267
6.64     1240
6.66     1283
6.68     1261
6.7      1253
6.72     1264
6.74     1230
6.76     1197
6.78     1182
6.8      1170
6.82     1175
6.84     1147
6.86     1171
6.88     1159
6.9      1184
6.92     1230
6.94     1242
6.96     1256
6.98     1250
7.0      1249
7.02     1249
7.04     1251
7.06     1206
7.08     1218
7.1      1197
7.12     1232
7.14     1221
7.16     1252
7.18     1231
7.2      1225
7.22     1236
7.24     1230
7.26     1157
7.28     1194
7.3      1173
7.32     1183
7.34     1221
7.36     1237
7.38     1233
7.4      1177
7.42     1188
7.44     1176
7.46     1195
7.48     1239
7.5      1201
7.52     1227
7.54     1243
7.56     1187
7.58     1152
7.6      1101
7.62     1034
7.64     1053
7.66     1073
7.68     1100
7.7      1110
7.72     1163
7.74     1139
7.76     1199
7.78     1187
7.8      1167
7.82     1141
7.84     1104
7.86     1131
7.88     1143
7.9      1123
7.92     1096
7.94     1081
7.96     1113
7.98     1074
8.0      1046
8.02     993
8.04     992
8.06     1037
8.08     1058
8.1      1080
8.12     1132
8.14     1143
8.16     1170
8.18     1143
8.2      1121
8.22     1099
8.24     1086
8.26     1035
8.28     1035
8.3      1044
8.32     1020
8.34     1045
8.36     1046
8.38     1068
8.4      1070
8.42     1076
8.44     1023
8.46     1042
8.48     1013
8.5      979
8.52     994
8.54     1016
8.56     1021
8.58     1041
8.6      977
8.62     1031
8.64     1014
8.66     1056
8.68     1065
8.7      1094
8.72     1088
8.74     1037
8.76     1044
8.78     989
8.8      972
8.82     975
8.84     957
8.86     960
8.88     978
8.9      1013
8.92     974
8.94     966
8.96     926
8.98     928
9.0      944
9.02     930
9.04     999
9.06     994
9.08     1022
9.1      1061
9.12     1022
9.14     975
9.16     938
9.18     925
9.2      884
9.22     918
9.24     922
9.26     944
9.28     970
9.3      949
9.32     954
9.34     932
9.36     969
9.38     933
9.4      888
9.42     923
9.44     918
9.46     918
9.48     879
9.5      825
9.52     831
9.54     808
9.56     840
9.58     830
9.6      840
9.62     906
9.64     906
9.66     833
9.68     761
9.7      762
9.72     747
9.74     715
9.76     736
9.78     757
9.8      769
9.82     755
9.84     738
9.86     723
9.88     710
9.9      748
9.92     716
9.94     716
9.96     752
9.98     769
10.0     754
10.02    735
10.04    767
10.06    801
10.08    787
10.1     825
10.12    767
10.14    766
10.16    748
10.18    774
10.2     767
10.22    725
10.24    786
10.26    833
10.28    851
10.3     893
10.32    840
10.34    848
10.36    790
10.38    822
10.4     805
10.42    795
10.44    817
10.46    812
10.48    814
10.5     827
10.52    852
10.54    890
10.56    855
10.58    910
10.6     903
10.62    915
10.64    872
10.66    834
10.68    830
10.7     825
10.72    788
10.74    774
10.76    793
10.78    791
10.8     795
10.82    810
10.84    831
10.86    886
10.88    908
10.9     913
10.92    889
10.94    955
10.96    998
10.98    987
11.0     1020
11.02    1028
11.04    1040
11.06    1054
11.08    994
11.1     952
11.12    932
11.14    957
11.16    940
11.18    952
11.2     981
11.22    1005
11.24    1029
11.26    1025
11.28    1047
11.3     1035
11.32    1011
11.34    1041
11.36    1028
11.38    1015
11.4     1016
11.42    988
11.44    985
11.46    964
11.48    1067
11.5     1061
11.52    1026
11.54    1095
11.56    1075
11.58    1072
11.6     1044
11.62    1004
11.64    992
11.66    984
11.68    1044
11.7     978
11.72    987
11.74    987
11.76    984
11.78    1015
11.8     1034
11.82    1097
11.84    1114
11.86    1128
11.88    1163
11.9     1144
11.92    1167
11.94    1116
11.96    1146
11.98    1130
12.0     1079
12.02    1103
12.04    1096
12.06    1098
12.08    1127
12.1     1161
12.12    1220
12.14    1191
12.16    1165
12.18    1119
12.2     1074
12.22    1116
12.24    1110
12.26    1100
12.28    1106
12.3     1114
12.32    1100
12.34    1089
12.36    1092
12.38    1104
12.4     1092
12.42    1122
12.44    1091
12.46    1081
12.48    1072
12.5     1103
12.52    1143
12.54    1196
12.56    1204
12.58    1195
12.6     1195
12.62    1211
12.64    1180
12.66    1152
12.68    1176
12.7     1230
12.72    1180
12.74    1227
12.76    1259
12.78    1219
12.8     1205
12.82    1195
12.84    1142
12.86    1084
12.88    1097
12.9     1063
12.92    1017
12.94    1189
12.96    1271
12.98    1273
13.0     1274
13.02    1299
13.04    1306
13.06    1242
13.08    1169
13.1     1086
13.12    1013
13.14    1101
13.16    1155
13.18    1151
13.2     1153
13.22    1273
13.24    1353
13.26    1355
13.28    1348
13.3     1296
13.32    1285
13.34    1305
13.36    1262
13.38    1223
13.4     1245
13.42    1286
13.44    1197
13.46    1202
13.48    1223
13.5     1208
13.52    1234
13.54    1268
13.56    1284
13.58    1304
13.6     1308
13.62    1322
13.64    1245
13.66    1258
13.68    1295
13.7     1317
13.72    1251
13.74    1222
13.76    1159
13.78    1117
13.8     1112
13.82    1217
13.84    1228
13.86    1251
13.88    1379
13.9     1459
13.92    1404
13.94    1346
13.96    1262
13.98    1273
14.0     1280
14.02    1253
14.04    1201
14.06    1228
14.08    1331
14.1     1410
14.12    1385
14.14    1372
14.16    1345
14.18    1312
14.2     1224
14.22    1158
14.24    1109
14.26    1134
14.28    1229
14.3     1277
14.32    1230
14.34    1283
14.36    1297
14.38    1284
14.4     1361
14.42    1415
14.44    1397
14.46    1415
14.48    1417
14.5     1315
14.52    1216
14.54    1241
14.56    1228
14.58    1235
14.6     1267
14.62    1221
14.64    1232
14.66    1241
14.68    1240
14.7     1190
14.72    1214
14.74    1288
14.76    1264
14.78    1275
14.8     1290
14.82    1306
14.84    1317
14.86    1337
14.88    1356
14.9     1386
14.92    1499
14.94    1524
14.96    1530
14.98    1531
15.0     1516
15.02    1471
15.04    1354
15.06    1257
15.08    1147
15.1     1135
15.12    1209
15.14    1222
15.16    1232
15.18    1195
15.2     1179
15.22    1210
15.24    1248
15.26    1212
15.28    1154
15.3     1141
15.32    1273
15.34    1294
15.36    1305
15.38    1299
15.4     1204
15.42    1203
15.44    1231
15.46    1151
15.48    1123
15.5     1142
15.52    1233
15.54    1200
15.56    1251
15.58    1259
15.6     1195
15.62    1215
15.64    1231
15.66    1205
15.68    1230
15.7     1234
15.72    1250
15.74    1185
15.76    1109
15.78    1136
15.8     1224
15.82    1262
15.84    1286
15.86    1393
15.88    1399
15.9     1358
15.92    1400
15.94    1396
15.96    1353
15.98    1429
16.0     1559
16.02    1625
16.04    1698
16.06    1803
16.08    1851
16.1     1964
16.12    2106
16.14    2254
16.16    2348
16.18    2501
16.2     2688
16.22    2908
16.24    3179
16.26    3554
16.28    3989
16.3     4569
16.32    5300
16.34    6137
16.36    7191
16.38    8507
16.4     10163
16.42    12182
16.44    14907
16.46    18519
16.48    23014
16.5     28703
16.52    35599
16.54    42836
16.56    48706
16.58    51558
16.6     50845
16.62    46388
16.64    39099
16.66    30218
16.68    21253
16.7     13711
16.72    8700
16.74    5980
16.76    4550
16.78    3813
16.8     3424
16.82    3032
16.84    2668
16.86    2403
16.88    2202
16.9     2012
16.92    1888
16.94    1778
16.96    1674
16.98    1654
17.0     1612
17.02    1564
17.04    1527
17.06    1446
17.08    1365
17.1     1390
17.12    1424
17.14    1369
17.16    1289
17.18    1296
17.2     1308
17.22    1271
17.24    1163
17.26    1095
17.28    1069
17.3     1087
17.32    1112
17.34    1089
17.36    1132
17.38    1151
17.4     1118
17.42    1097
17.44    1006
17.46    1010
17.48    918
17.5     884
17.52    930
17.54    945
17.56    932
17.58    915
17.6     958
17.62    958
17.64    893
17.66    908
17.68    892
17.7     840
17.72    866
17.74    865
17.76    869
17.78    890
17.8     944
17.82    879
17.84    844
17.86    861
17.88    896
17.9     835
17.92    868
17.94    872
17.96    847
17.98    852
18.0     850
18.02    746
18.04    717
18.06    729
18.08    723
18.1     687
18.12    683
18.14    680
18.16    666
18.18    755
18.2     740
18.22    695
18.24    726
18.26    719
18.28    719
18.3     685
18.32    684
18.34    687
18.36    735
18.38    748
18.4     732
18.42    742
18.44    743
18.46    725
18.48    733
18.5     669
18.52    644
18.54    566
18.56    642
18.58    658
18.6     686
18.62    648
18.64    706
18.66    730
18.68    718
18.7     670
18.72    639
18.74    581
18.76    685
18.78    761
18.8     734
18.82    634
18.84    622
18.86    589
18.88    571
18.9     538
18.92    540
18.94    572
18.96    645
18.98    724
19.0     693
19.02    635
19.04    609
19.06    589
19.08    552
19.1     529
19.12    556
19.14    576
19.16    590
19.18    576
19.2     640
19.22    700
19.24    740
19.26    679
19.28    649
19.3     651
19.32    621
19.34    556
19.36    527
19.38    505
19.4     520
19.42    495
19.44    505
19.46    509
19.48    559
19.5     555
19.52    477
19.54    512
19.56    531
19.58    528
19.6     494
19.62    499
19.64    582
19.66    613
19.68    585
19.7     554
19.72    534
19.74    613
19.76    576
19.78    581
19.8     598
19.82    587
19.84    652
19.86    562
19.88    500
19.9     519
19.92    526
19.94    555
19.96    520
19.98    532
20.0     577
20.02    579
20.04    592
20.06    487
20.08    472
20.1     481
20.12    520
20.14    545
20.16    497
20.18    507
20.2     523
20.22    523
20.24    462
20.26    435
20.28    496
20.3     593
20.32    638
20.34    568
20.36    469
20.38    444
20.4     449
20.42    491
20.44    504
20.46    532
20.48    565
20.5     630
20.52    615
20.54    534
20.56    509
20.58    469
20.6     560
20.62    604
20.64    601
20.66    513
20.68    455
20.7     469
20.72    499
20.74    476
20.76    477
20.78    452
20.8     569
20.82    614
20.84    645
20.86    567
20.88    588
20.9     604
20.92    571
20.94    528
20.96    503
20.98    485
21.0     484
21.02    455
21.04    452
21.06    464
21.08    535
21.1     464
21.12    402
21.14    432
21.16    443
21.18    432
21.2     342
21.22    347
21.24    400
21.26    498
21.28    529
21.3     456
21.32    423
21.34    394
21.36    359
21.38    321
21.4     270
21.42    345
21.44    377
21.46    443
21.48    489
21.5     456
21.52    429
21.54    445
21.56    487
21.58    561
21.6     581
21.62    561
21.64    435
21.66    390
21.68    377
21.7     392
21.72    437
21.74    499
21.76    558
21.78    556
21.8     503
21.82    459
21.84    392
21.86    383
21.88    362
21.9     402
21.92    438
21.94    408
21.96    358
21.98    249
22.0     243
22.02    310
22.04    378
22.06    414
22.08    403
22.1     435
22.12    452
22.14    420
22.16    390
22.18    332
22.2     327
22.22    374
22.24    390
22.26    401
22.28    415
22.3     445
22.32    452
22.34    459
22.36    500
22.38    530
22.4     507
22.42    463
22.44    428
22.46    400
22.48    373
22.5     391
22.52    358
22.54    346
22.56    415
22.58    415
22.6     348
22.62    354
22.64    410
22.66    401
22.68    355
22.7     393
22.72    358
22.74    349
22.76    350
22.78    319
22.8     318
22.82    352
22.84    360
22.86    353
22.88    400
22.9     458
22.92    470
22.94    444
22.96    409
22.98    381
23.0     355
23.02    309
23.04    233
23.06    205
23.08    266
23.1     341
23.12    321
23.14    256
23.16    269
23.18    287
23.2     337
23.22    373
23.24    367
23.26    351
23.28    364
23.3     356
23.32    300
23.34    313
23.36    286
23.38    302
23.4     353
23.42    433
23.44    445
23.46    407
23.48    351
23.5     316
23.52    334
23.54    393
23.56    284
23.58    262
23.6     227
23.62    291
23.64    303
23.66    352
23.68    313
23.7     298
23.72    300
23.74    376
23.76    326
23.78    327
23.8     300
23.82    386
23.84    400
23.86    392
23.88    300
23.9     218
23.92    179
23.94    211
23.96    218
23.98    226
24.0     235
24.02    281
24.04    314
24.06    328
24.08    333
24.1     314
24.12    345
24.14    306
24.16    299
24.18    243
24.2     217
24.22    190
24.24    231
24.26    248
24.28    273
24.3     272
24.32    262
24.34    173
24.36    217
24.38    240
24.4     224
24.42    229
24.44    232
24.46    228
24.48    229
24.5     198
24.52    212
24.54    202
24.56    275
24.58    321
24.6     315
24.62    312
24.64    323
24.66    340
24.68    318
24.7     314
24.72    340
24.74    337
24.76    345
24.78    315
24.8     271
24.82    261
24.84    247
24.86    258
24.88    185
24.9     162
24.92    138
24.94    129
24.96    114
24.98    79
25.0     130
25.02    218
25.04    253
25.06    376
25.08    393
25.1     379
25.12    331
25.14    272
25.16    171
25.18    149
25.2     206
25.22    197
25.24    164
25.26    175
25.28    245
25.3     279
25.32    262
25.34    221
25.36    162
25.38    215
25.4     273
25.42    264
25.44    208
25.46    196
25.48    213
25.5     217
25.52    139
25.54    167
25.56    161
25.58    200
25.6     255
25.62    252
25.64    204
25.66    199
25.68    148
25.7     190
25.72    178
25.74    222
25.76    204
25.78    240
25.8     224
25.82    206
25.84    217
25.86    228
25.88    193
25.9     187
25.92    104
25.94    64
25.96    57
25.98    87
26.0     123
26.02    178
26.04    226
26.06    238
26.08    196
26.1     264
26.12    211
26.14    219
26.16    201
26.18    199
26.2     231
26.22    232
26.24    224
26.26    185
26.28    134
26.3     177
26.32    143
26.34    168
26.36    213
26.38    251
26.4     285
26.42    265
26.44    278
26.46    211
26.48    128
26.5     99
26.52    63
26.54    115
26.56    144
26.58    204
26.6     277
26.62    273
26.64    310
26.66    240
26.68    181
26.7     101
26.72    54
26.74    81
26.76    89
26.78    187
26.8     287
26.82    331
26.84    294
26.86    235
26.88    180
26.9     142
26.92    202
26.94    268
26.96    295
26.98    302
27.0     242
27.02    182
27.04    101
27.06    105
27.08    174
27.1     264
27.12    377
27.14    420
27.16    384
27.18    314
27.2     160
27.22    105
27.24    111
27.26    223
27.28    317
27.3     353
27.32    352
27.34    293
27.36    217
27.38    207
27.4     186
27.42    203
27.44    235
27.46    295
27.48    250
27.5     198
27.52    101
27.54    110
27.56    102
27.58    170
27.6     199
27.62    207
27.64    237
27.66    192
27.68    190
27.7     188
27.72    188
27.74    247
27.76    211
27.78    172
27.8     125
27.82    101
27.84    80
27.86    74
27.88    128
27.9     174
27.92    173
27.94    183
27.96    227
27.98    249
28.0     263
28.02    287
28.04    278
28.06    274
28.08    223
28.1     172
28.12    137
28.14    174
28.16    194
28.18    188
28.2     169
28.22    135
28.24    135
28.26    148
28.28    127
28.3     114
28.32    159
28.34    193
28.36    186
28.38    171
28.4     125
28.42    88
28.44    108
28.46    202
28.48    233
28.5     295
28.52    345
28.54    338
28.56    304
28.58    243
28.6     137
28.62    110
28.64    14
28.66    9
28.68    8
28.7     26
28.72    120
28.74    187
28.76    212
28.78    303
28.8     336
28.82    402
28.84    333
28.86    202
28.88    152
28.9     102
28.92    88
28.94    43
28.96    16
28.98    82
29.0     128
29.02    275
29.04    318
29.06    329
29.08    308
29.1     305
29.12    228
29.14    128
29.16    61
29.18    25
29.2     5
29.22    110
29.24    148
29.26    261
29.28    281
29.3     330
29.32    284
29.34    192
29.36    156
29.38    96
29.4     85
29.42    110
29.44    181
29.46    256
29.48    277
29.5     304
29.52    226
29.54    193
29.56    180
29.58    147
29.6     177
29.62    141
29.64    151
29.66    116
29.68    124
29.7     201
29.72    226
29.74    281
29.76    296
29.78    286
29.8     315
29.82    312
29.84    281
29.86    208
29.88    159
29.9     148
29.92    128
29.94    89
29.96    63
29.98    65
30.0     103
30.02    196
30.04    249
30.06    255
30.08    263
30.1     248
30.12    199
30.14    137
30.16    87
30.18    99
30.2     144
30.22    217
30.24    295
30.26    277
30.28    289
30.3     191
30.32    91
30.34    55
30.36    44
30.38    128
30.4     205
30.42    274
30.44    253
30.46    165
30.48    133
30.5     69
30.52    25
30.54    47
30.56    83
30.58    129
30.6     246
30.62    287
30.64    219
30.66    211
30.68    201
30.7     158
30.72    125
30.74    73
30.76    50
30.78    89
30.8     153
30.82    105
30.84    126
30.86    168
30.88    124
30.9     139
30.92    151
30.94    159
30.96    212
30.98    172
31.0     131
31.02    109
31.04    131
31.06    183
31.08    173
31.1     142
31.12    109
31.14    120
31.16    194
31.18    211
31.2     270
31.22    260
31.24    197
31.26    161
31.28    62
31.3     16
31.32    45
31.34    84
31.36    183
31.38    260
31.4     277
31.42    265
31.44    211
31.46    163
31.48    150
31.5     201
31.52    252
31.54    265
31.56    198
31.58    230
31.6     239
31.62    248
31.64    271
31.66    207
31.68    129
31.7     92
31.72    44
31.74    1
31.76    23
31.78    94
31.8     175
31.82    242
31.84    256
31.86    251
31.88    207
31.9     183
31.92    130
31.94    114
31.96    174
31.98    157
32.0     175
32.02    127
32.04    102
32.06    166
32.08    199
32.1     252
32.12    288
32.14    312
32.16    311
32.18    353
32.2     301
32.22    250
32.24    228
32.26    166
32.28    190
32.3     152
32.32    139
32.34    135
32.36    130
32.38    180
32.4     187
32.42    214
32.44    246
32.46    243
32.48    341
32.5     404
32.52    403
32.54    403
32.56    372
32.58    240
32.6     181
32.62    93
32.64    94
32.66    63
32.68    137
32.7     237
32.72    243
32.74    303
32.76    291
32.78    291
32.8     307
32.82    352
32.84    447
32.86    439
32.88    458
32.9     418
32.92    382
32.94    338
32.96    292
32.98    275
33.0     272
33.02    315
33.04    374
33.06    389
33.08    399
33.1     359
33.12    360
33.14    346
33.16    354
33.18    308
33.2     404
33.22    494
33.24    632
33.26    750
33.28    840
33.3     861
33.32    915
33.34    1016
33.36    1184
33.38    1372
33.4     1818
33.42    2389
33.44    3159
33.46    4120
33.48    5350
33.5     6792
33.52    8388
33.54    9963
33.56    11075
33.58    11472
33.6     11211
33.62    10175
33.64    8655
33.66    6754
33.68    4922
33.7     3446
33.72    2407
33.74    1738
33.76    1360
33.78    1121
33.8     994
33.82    870
33.84    811
33.86    647
33.88    616
33.9     568
33.92    552
33.94    471
33.96    492
33.98    468
34.0     441
34.02    442
34.04    483
34.06    456
34.08    436
34.1     313
34.12    271
34.14    228
34.16    217
34.18    277
34.2     353
34.22    487
34.24    551
34.26    515
34.28    433
34.3     312
34.32    217
34.34    222
34.36    170
34.38    241
34.4     309
34.42    374
34.44    368
34.46    334
34.48    319
34.5     302
34.52    291
34.54    358
34.56    341
34.58    465
34.6     455
34.62    414
34.64    354
34.66    280
34.68    243
34.7     226
34.72    285
34.74    410
34.76    478
34.78    570
34.8     534
34.82    483
34.84    433
34.86    420
34.88    467
34.9     598
34.92    807
34.94    1048
34.96    1319
34.98    1673
35.0     2165
35.02    2869
35.04    4094
35.06    5767
35.08    7777
35.1     9629
35.12    10906
35.14    11425
35.16    11018
35.18    9798
35.2     7995
35.22    6008
35.24    4321
35.26    3034
35.28    2281
35.3     1701
35.32    1302
35.34    1037
35.36    760
35.38    570
35.4     478
35.42    458
35.44    523
35.46    593
35.48    638
35.5     565
35.52    559
35.54    485
35.56    402
35.58    331
35.6     323
35.62    312
35.64    352
35.66    377
35.68    411
35.7     401
35.72    492
35.74    517
35.76    535
35.78    524
35.8     533
35.82    455
35.84    404
35.86    414
35.88    404
35.9     405
35.92    526
35.94    603
35.96    602
35.98    610
36.0     561
36.02    409
36.04    350
36.06    346
36.08    372
36.1     450
36.12    634
36.14    761
36.16    873
36.18    928
36.2     985
36.22    1048
36.24    1200
36.26    1447
36.28    1827
36.3     2271
36.32    2840
36.34    3717
36.36    4902
36.38    6700
36.4     9353
36.42    12786
36.44    16792
36.46    20567
36.48    23305
36.5     24497
36.52    23794
36.54    21469
36.56    17798
36.58    13743
36.6     9832
36.62    6797
36.64    4687
36.66    3295
36.68    2402
36.7     1850
36.72    1453
36.74    1186
36.76    1057
36.78    993
36.8     866
36.82    872
36.84    812
36.86    755
36.88    634
36.9     587
36.92    508
36.94    503
36.96    591
36.98    626
37.0     611
37.02    622
37.04    582
37.06    486
37.08    368
37.1     363
37.12    312
37.14    312
37.16    356
37.18    425
37.2     428
37.22    464
37.24    503
37.26    468
37.28    427
37.3     483
37.32    523
37.34    549
37.36    600
37.38    660
37.4     682
37.42    663
37.44    584
37.46    413
37.48    305
37.5     259
37.52    216
37.54    232
37.56    238
37.58    320
37.6     399
37.62    344
37.64    325
37.66    293
37.68    246
37.7     232
37.72    196
37.74    210
37.76    247
37.78    290
37.8     288
37.82    256
37.84    259
37.86    253
37.88    250
37.9     235
37.92    227
37.94    245
37.96    309
37.98    300
38.0     352
38.02    325
38.04    320
38.06    246
38.08    233
38.1     176
38.12    223
38.14    228
38.16    333
38.18    368
38.2     428
38.22    345
38.24    326
38.26    206
38.28    190
38.3     143
38.32    154
38.34    185
38.36    282
38.38    309
38.4     317
38.42    233
38.44    168
38.46    135
38.48    138
38.5     91
38.52    129
38.54    282
38.56    372
38.58    399
38.6     436
38.62    367
38.64    251
38.66    238
38.68    149
38.7     84
38.72    133
38.74    212
38.76    170
38.78    203
38.8     244
38.82    194
38.84    147
38.86    185
38.88    169
38.9     193
38.92    318
38.94    429
38.96    411
38.98    425
39.0     433
39.02    302
39.04    175
39.06    116
39.08    84
39.1     42
39.12    161
39.14    255
39.16    256
39.18    310
39.2     365
39.22    248
39.24    189
39.26    247
39.28    222
39.3     186
39.32    232
39.34    240
39.36    252
39.38    292
39.4     245
39.42    151
39.44    199
39.46    249
39.48    156
39.5     122
39.52    186
39.54    131
39.56    138
39.58    179
39.6     182
39.62    194
39.64    270
39.66    263
39.68    252
39.7     257
39.72    322
39.74    308
39.76    351
39.78    358
39.8     392
39.82    366
39.84    306
39.86    245
39.88    238
39.9     213
39.92    226
39.94    322
39.96    427
39.98    437
40.0     534
40.02    577
40.04    581
40.06    559
40.08    609
40.1     604
40.12    564
40.14    551
40.16    597
40.18    509
40.2     500
40.22    554
40.24    552
40.26    515
40.28    588
40.3     586
40.32    549
40.34    524
40.36    598
40.38    576
40.4     552
40.42    607
40.44    579
40.46    504
40.48    526
40.5     534
40.52    530
40.54    590
40.56    695
40.58    731
40.6     744
40.62    803
40.64    802
40.66    766
40.68    753
40.7     707
40.72    632
40.74    621
40.76    664
40.78    709
40.8     753
40.82    838
40.84    928
40.86    956
40.88    980
40.9     946
40.92    940
40.94    910
40.96    949
40.98    979
41.0     1022
41.02    1107
41.04    1210
41.06    1281
41.08    1417
41.1     1494
41.12    1604
41.14    1640
41.16    1768
41.18    1941
41.2     2187
41.22    2520
41.24    2961
41.26    3467
41.28    4097
41.3     4804
41.32    5724
41.34    6878
41.36    8412
41.38    10450
41.4     13180
41.42    17174
41.44    22806
41.46    30597
41.48    41089
41.5     53616
41.52    66426
41.54    77079
41.56    83217
41.58    83579
41.6     78055
41.62    68004
41.64    55069
41.66    41806
41.68    30391
41.7     21792
41.72    15942
41.74    12038
41.76    9260
41.78    7236
41.8     5731
41.82    4800
41.84    4062
41.86    3611
41.88    3213
41.9     2954
41.92    2766
41.94    2534
41.96    2372
41.98    2129
42.0     1856
42.02    1655
42.04    1488
42.06    1325
42.08    1202
42.1     1170
42.12    1144
42.14    1100
42.16    1168
42.18    1163
42.2     1133
42.22    1102
42.24    1047
42.26    928
42.28    861
42.3     825
42.32    761
42.34    707
42.36    740
42.38    735
42.4     727
42.42    689
42.44    654
42.46    640
42.48    651
42.5     692
42.52    658
42.54    659
42.56    703
42.58    697
42.6     709
42.62    675
42.64    682
42.66    644
42.68    631
42.7     569
42.72    478
42.74    427
42.76    461
42.78    468
42.8     482
42.82    506
42.84    595
42.86    645
42.88    600
42.9     583
42.92    524
42.94    446
42.96    400
42.98    345
43.0     344
43.02    311
43.04    442
43.06    490
43.08    481
43.1     566
43.12    570
43.14    666
43.16    640
43.18    639
43.2     648
43.22    555
43.24    558
43.26    450
43.28    399
43.3     358
43.32    356
43.34    472
43.36    474
43.38    536
43.4     508
43.42    459
43.44    398
43.46    301
43.48    204
43.5     202
43.52    235
43.54    322
43.56    385
43.58    457
43.6     486
43.62    520
43.64    511
43.66    457
43.68    392
43.7     380
43.72    320
43.74    287
43.76    223
43.78    231
43.8     277
43.82    364
43.84    420
43.86    465
43.88    539
43.9     565
43.92    498
43.94    417
43.96    276
43.98    214
44.0     206
44.02    193
44.04    174
44.06    226
44.08    333
44.1     337
44.12    290
44.14    268
44.16    227
44.18    216
44.2     241
44.22    270
44.24    302
44.26    298
44.28    352
44.3     360
44.32    413
44.34    357
44.36    331
44.38    330
44.4     297
44.42    306
44.44    225
44.46    200
44.48    261
44.5     304
44.52    452
44.54    401
44.56    444
44.58    432
44.6     380
44.62    350
44.64    229
44.66    206
44.68    202
44.7     254
44.72    319
44.74    328
44.76    448
44.78    532
44.8     619
44.82    628
44.84    572
44.86    589
44.88    578
44.9     574
44.92    525
44.94    692
44.96    920
44.98    1140
45.0     1307
45.02    1478
45.04    1622
45.06    1642
45.08    1473
45.1     1305
45.12    1133
45.14    998
45.16    836
45.18    711
45.2     612
45.22    549
45.24    556
45.26    475
45.28    366
45.3     314
45.32    295
45.34    270
45.36    213
45.38    204
45.4     203
45.42    234
45.44    307
45.46    328
45.48    332
45.5     364
45.52    388
45.54    431
45.56    426
45.58    406
45.6     347
45.62    344
45.64    270
45.66    201
45.68    163
45.7     193
45.72    208
45.74    224
45.76    301
45.78    326
45.8     309
45.82    313
45.84    215
45.86    224
45.88    199
45.9     192
45.92    183
45.94    157
45.96    257
45.98    223
46.0     252
46.02    250
46.04    282
46.06    345
46.08    331
46.1     319
46.12    324
46.14    307
46.16    278
46.18    201
46.2     223
46.22    217
46.24    265
46.26    251
46.28    262
46.3     234
46.32    263
46.34    266
46.36    267
46.38    331
46.4     359
46.42    341
46.44    315
46.46    332
46.48    331
46.5     327
46.52    372
46.54    373
46.56    444
46.58    492
46.6     454
46.62    435
46.64    388
46.66    364
46.68    282
46.7     192
46.72    121
46.74    56
46.76    70
46.78    72
46.8     127
46.82    230
46.84    284
46.86    308
46.88    285
46.9     266
46.92    220
46.94    193
46.96    168
46.98    149
47.0     204
47.02    259
47.04    332
47.06    310
47.08    321
47.1     381
47.12    374
47.14    405
47.16    379
47.18    332
47.2     316
47.22    264
47.24    214
47.26    103
47.28    51
47.3     56
47.32    66
47.34    101
47.36    174
47.38    276
47.4     355
47.42    409
47.44    428
47.46    385
47.48    322
47.5     254
47.52    144
47.54    43
47.56    62
47.58    87
47.6     151
47.62    221
47.64    310
47.66    386
47.68    446
47.7     501
47.72    421
47.74    381
47.76    343
47.78    266
47.8     281
47.82    263
47.84    322
47.86    354
47.88    364
47.9     453
47.92    387
47.94    340
47.96    239
47.98    196
48.0     230
48.02    219
48.04    279
48.06    368
48.08    365
48.1     417
48.12    390
48.14    286
48.16    206
48.18    205
48.2     204
48.22    225
48.24    309
48.26    428
48.28    431
48.3     502
48.32    510
48.34    382
48.36    323
48.38    198
48.4     138
48.42    118
48.44    141
48.46    234
48.48    311
48.5     420
48.52    438
48.54    418
48.56    376
48.58    268
48.6     235
48.62    114
48.64    80
48.66    78
48.68    102
48.7     184
48.72    292
48.74    386
48.76    435
48.78    450
48.8     426
48.82    358
48.84    251
48.86    123
48.88    103
48.9     115
48.92    134
48.94    181
48.96    256
48.98    292
49.0     342
49.02    398
49.04    322
49.06    345
49.08    370
49.1     306
49.12    282
49.14    279
49.16    296
49.18    277
49.2     216
49.22    181
49.24    161
49.26    197
49.28    159
49.3     151
49.32    212
49.34    247
49.36    290
49.38    251
49.4     179
49.42    220
49.44    235
49.46    195
49.48    157
49.5     202
49.52    206
49.54    182
49.56    103
49.58    96
49.6     120
49.62    205
49.64    180
49.66    130
49.68    183
49.7     239
49.72    265
49.74    261
49.76    248
49.78    306
49.8     324
49.82    339
49.84    284
49.86    240
49.88    217
49.9     207
49.92    209
49.94    190
49.96    176
49.98    191
50.0     229
50.02    240
50.04    261
50.06    272
50.08    260
50.1     302
50.12    315
50.14    341
50.16    312
50.18    278
50.2     248
50.22    184
50.24    122
50.26    52
50.28    28
50.3     58
50.32    94
50.34    172
50.36    199
50.38    279
50.4     364
50.42    365
50.44    300
50.46    259
50.48    229
50.5     155
50.52    80
50.54    61
50.56    88
50.58    209
50.6     261
50.62    303
50.64    345
50.66    452
50.68    453
50.7     383
50.72    300
50.74    252
50.76    229
50.78    173
50.8     73
50.82    106
50.84    167
50.86    218
50.88    223
50.9     267
50.92    354
50.94    335
50.96    285
50.98    217
51.0     206
51.02    189
51.04    170
51.06    179
51.08    249
51.1     359
51.12    477
51.14    431
51.16    420
51.18    429
51.2     372
51.22    258
51.24    175
51.26    97
51.28    86
51.3     79
51.32    124
51.34    130
51.36    190
51.38    242
51.4     284
51.42    375
51.44    408
51.46    381
51.48    364
51.5     302
51.52    267
51.54    189
51.56    113
51.58    96
51.6     146
51.62    251
51.64    313
51.66    367
51.68    416
51.7     439
51.72    418
51.74    374
51.76    313
51.78    318
51.8     274
51.82    288
51.84    296
51.86    296
51.88    279
51.9     338
51.92    335
51.94    368
51.96    383
51.98    397
52.0     349
52.02    343
52.04    300
52.06    236
52.08    201
52.1     318
52.12    329
52.14    366
52.16    380
52.18    395
52.2     448
52.22    461
52.24    366
52.26    331
52.28    318
52.3     326
52.32    296
52.34    270
52.36    273
52.38    314
52.4     352
52.42    351
52.44    310
52.46    316
52.48    316
52.5     261
52.52    254
52.54    317
52.56    337
52.58    301
52.6     302
52.62    322
52.64    324
52.66    354
52.68    369
52.7     414
52.72    487
52.74    584
52.76    554
52.78    558
52.8     551
52.82    453
52.84    393
52.86    347
52.88    295
52.9     306
52.92    285
52.94    251
52.96    262
52.98    328
53.0     339
53.02    392
53.04    457
53.06    524
53.08    658
53.1     758
53.12    791
53.14    861
53.16    904
53.18    894
53.2     884
53.22    854
53.24    858
53.26    992
53.28    1152
53.3     1415
53.32    1780
53.34    2277
53.36    2891
53.38    3647
53.4     4508
53.42    5450
53.44    6327
53.46    6985
53.48    7237
53.5     7197
53.52    6744
53.54    5951
53.56    5004
53.58    4151
53.6     3383
53.62    2825
53.64    2323
53.66    1928
53.68    1641
53.7     1401
53.72    1127
53.74    855
53.76    645
53.78    618
53.8     602
53.82    601
53.84    576
53.86    568
53.88    639
53.9     649
53.92    615
53.94    541
53.96    477
53.98    452
54.0     447
54.02    440
54.04    379
54.06    341
54.08    414
54.1     491
54.12    514
54.14    517
54.16    517
54.18    539
54.2     520
54.22    503
54.24    346
54.26    256
54.28    239
54.3     244
54.32    241
54.34    267
54.36    298
54.38    382
54.4     369
54.42    422
54.44    310
54.46    269
54.48    256
54.5     235
54.52    166
54.54    135
54.56    151
54.58    170
54.6     169
54.62    241
54.64    261
54.66    356
54.68    336
54.7     295
54.72    284
54.74    231
54.76    168
54.78    112
54.8     105
54.82    156
54.84    233
54.86    271
54.88    227
54.9     327
54.92    394
54.94    374
54.96    316
54.98    289
55.0     272
55.02    308
55.04    253
55.06    242
55.08    230
55.1     314
55.12    312
55.14    312
55.16    252
55.18    295
55.2     312
55.22    355
55.24    300
55.26    270
55.28    263
55.3     272
55.32    244
55.34    165
55.36    156
55.38    176
55.4     161
55.42    196
55.44    183
55.46    139
55.48    221
55.5     262
55.52    299
55.54    313
55.56    411
55.58    424
55.6     454
55.62    530
55.64    525
55.66    452
55.68    391
55.7     279
55.72    207
55.74    153
55.76    160
55.78    109
55.8     107
55.82    248
55.84    334
55.86    387
55.88    394
55.9     393
55.92    429
55.94    478
55.96    492
55.98    399
56.0     343
56.02    347
56.04    327
56.06    295
56.08    202
56.1     167
56.12    222
56.14    287
56.16    331
56.18    349
56.2     402
56.22    420
56.24    447
56.26    400
56.28    325
56.3     304
56.32    291
56.34    246
56.36    222
56.38    261
56.4     313
56.42    334
56.44    374
56.46    385
56.48    365
56.5     383
56.52    315
56.54    231
56.56    198
56.58    203
56.6     173
56.62    187
56.64    205
56.66    219
56.68    274
56.7     331
56.72    317
56.74    324
56.76    361
56.78    423
56.8     474
56.82    534
56.84    545
56.86    553
56.88    590
56.9     570
56.92    510
56.94    447
56.96    373
56.98    331
57.0     276
57.02    213
57.04    254
57.06    205
57.08    230
57.1     290
57.12    351
57.14    425
57.16    482
57.18    471
57.2     430
57.22    432
57.24    424
57.26    356
57.28    376
57.3     328
57.32    329
57.34    326
57.36    365
57.38    291
57.4     262
57.42    271
57.44    232
57.46    345
57.48    405
57.5     424
57.52    468
57.54    529
57.56    548
57.58    515
57.6     559
57.62    579
57.64    599
57.66    641
57.68    639
57.7     606
57.72    601
57.74    615
57.76    554
57.78    513
57.8     545
57.82    623
57.84    713
57.86    794
57.88    880
57.9     980
57.92    1152
57.94    1332
57.96    1480
57.98    1653
58.0     1862
58.02    2032
58.04    2228
58.06    2427
58.08    2680
58.1     3125
58.12    3673
58.14    4457
58.16    5501
58.18    6892
58.2     8573
58.22    10537
58.24    12573
58.26    14384
58.28    15794
58.3     16532
58.32    16314
58.34    15266
58.36    13644
58.38    11680
58.4     9608
58.42    7763
58.44    6199
58.46    4952
58.48    4067
58.5     3431
58.52    2810
58.54    2307
58.56    2038
58.58    1821
58.6     1595
58.62    1470
58.64    1324
58.66    1199
58.68    1143
58.7     1083
58.72    942
58.74    849
58.76    865
58.78    817
58.8     815
58.82    826
58.84    776
58.86    765
58.88    759
58.9     682
58.92    574
58.94    476
58.96    428
58.98    283
59.0     290
59.02    276
59.04    304
59.06    329
59.08    360
59.1     374
59.12    374
59.14    426
59.16    450
59.18    441
59.2     480
59.22    481
59.24    510
59.26    516
59.28    506
59.3     490
59.32    437
59.34    417
59.36    356
59.38    359
59.4     324
59.42    305
59.44    312
59.46    374
59.48    416
59.5     432
59.52    457
59.54    482
59.56    458
59.58    458
59.6     445
59.62    389
59.64    316
59.66    316
59.68    277
59.7     273
59.72    298
59.74    274
59.76    223
59.78    206
59.8     263
59.82    278
59.84    321
59.86    395
59.88    382
59.9     385
59.92    395
59.94    354
59.96    293
59.98    240
60.0     257
60.02    252
60.04    294
60.06    300
60.08    241
60.1     254
60.12    264
60.14    305
60.16    369
60.18    427
60.2     470
60.22    516
60.24    508
60.26    516
60.28    507
60.3     502
60.32    390
60.34    354
60.36    295
60.38    223
60.4     190
60.42    197
60.44    151
60.46    220
60.48    360
60.5     418
60.52    434
60.54    508
60.56    517
60.58    517
60.6     522
60.62    448
60.64    350
60.66    290
60.68    272
60.7     176
60.72    114
60.74    125
60.76    157
60.78    204
60.8     294
60.82    393
60.84    469
60.86    535
60.88    560
60.9     575
60.92    548
60.94    521
60.96    481
60.98    397
61.0     416
61.02    404
61.04    412
61.06    413
61.08    343
61.1     330
61.12    313
61.14    345
61.16    312
61.18    227
61.2     246
61.22    236
61.24    295
61.26    348
61.28    367
61.3     387
61.32    455
61.34    543
61.36    512
61.38    460
61.4     420
61.42    376
61.44    360
61.46    421
61.48    478
61.5     476
61.52    472
61.54    494
61.56    449
61.58    447
61.6     450
61.62    490
61.64    478
61.66    505
61.68    577
61.7     613
61.72    608
61.74    657
61.76    642
61.78    732
61.8     853
61.82    994
61.84    1032
61.86    1135
61.88    1321
61.9     1551
61.92    1752
61.94    2075
61.96    2471
61.98    3054
62.0     3801
62.02    4859
62.04    6163
62.06    7887
62.08    9934
62.1     12236
62.12    14299
62.14    16053
62.16    17001
62.18    16974
62.2     16129
62.22    14675
62.24    12752
62.26    10678
62.28    8761
62.3     7233
62.32    5918
62.34    4998
62.36    4112
62.38    3359
62.4     2860
62.42    2473
62.44    2117
62.46    1791
62.48    1531
62.5     1290
62.52    1082
62.54    929
62.56    808
62.58    682
62.6     692
62.62    720
62.64    737
62.66    746
62.68    788
62.7     709
62.72    691
62.74    632
62.76    570
62.78    472
62.8     446
62.82    416
62.84    412
62.86    359
62.88    387
62.9     367
62.92    401
62.94    446
62.96    491
62.98    470
63.0     412
63.02    362
63.04    357
63.06    285
63.08    269
63.1     276
63.12    250
63.14    300
63.16    338
63.18    323
63.2     330
63.22    293
63.24    390
63.26    397
63.28    442
63.3     427
63.32    394
63.34    389
63.36    402
63.38    427
63.4     395
63.42    339
63.44    407
63.46    393
63.48    481
63.5     474
63.52    444
63.54    412
63.56    410
63.58    396
63.6     385
63.62    373
63.64    371
63.66    344
63.68    393
63.7     350
63.72    331
63.74    278
63.76    240
63.78    226
63.8     266
63.82    305
63.84    294
63.86    301
63.88    374
63.9     419
63.92    495
63.94    480
63.96    481
63.98    468
64.0     444
64.02    428
64.04    372
64.06    322
64.08    323
64.1     282
64.12    279
64.14    244
64.16    276
64.18    257
64.2     280
64.22    331
64.24    403
64.26    440
64.28    461
64.3     459
64.32    491
64.34    402
64.36    358
64.38    309
64.4     309
64.42    312
64.44    415
64.46    422
64.48    465
64.5     489
64.52    508
64.54    554
64.56    575
64.58    661
64.6     765
64.62    870
64.64    1035
64.66    1167
64.68    1416
64.7     1680
64.72    2046
64.74    2525
64.76    2960
64.78    3413
64.8     3920
64.82    4252
64.84    4424
64.86    4418
64.88    4221
64.9     3936
64.92    3532
64.94    3071
64.96    2616
64.98    2146
65.0     1873
65.02    1551
65.04    1309
65.06    1114
65.08    907
65.1     822
65.12    721
65.14    666
65.16    626
65.18    569
65.2     561
65.22    504
65.24    435
65.26    417
65.28    369
65.3     320
65.32    309
65.34    299
65.36    287
65.38    280
65.4     329
65.42    328
65.44    306
65.46    292
65.48    297
65.5     273
65.52    273
65.54    257
65.56    240
65.58    230
65.6     216
65.62    202
65.64    201
65.66    214
65.68    233
65.7     226
65.72    186
65.74    209
65.76    213
65.78    192
65.8     162
65.82    181
65.84    187
65.86    271
65.88    316
65.9     367
65.92    423
65.94    434
65.96    459
65.98    408
66.0     412
66.02    356
66.04    286
66.06    267
66.08    205
66.1     131
66.12    150
66.14    119
66.16    150
66.18    129
66.2     167
66.22    152
66.24    223
66.26    318
66.28    397
66.3     398
66.32    483
66.34    547
66.36    526
66.38    503
66.4     469
66.42    400
66.44    327
66.46    251
66.48    207
66.5     115
66.52    62
66.54    82
66.56    119
66.58    175
66.6     249
66.62    317
66.64    320
66.66    323
66.68    378
66.7     375
66.72    333
66.74    317
66.76    277
66.78    234
66.8     258
66.82    249
66.84    250
66.86    271
66.88    313
66.9     352
66.92    367
66.94    313
66.96    253
66.98    261
67.0     206
67.02    176
67.04    145
67.06    114
67.08    164
67.1     185
67.12    210
67.14    274
67.16    326
67.18    394
67.2     437
67.22    455
67.24    502
67.26    461
67.28    447
67.3     387
67.32    365
67.34    351
67.36    298
67.38    266
67.4     224
67.42    162
67.44    175
67.46    184
67.48    201
67.5     300
67.52    313
67.54    330
67.56    310
67.58    301
67.6     261
67.62    280
67.64    244
67.66    320
67.68    274
67.7     294
67.72    263
67.74    221
67.76    218
67.78    233
67.8     241
67.82    279
67.84    292
67.86    310
67.88    268
67.9     270
67.92    318
67.94    329
67.96    376
67.98    389
68.0     365
68.02    363
68.04    361
68.06    350
68.08    325
68.1     302
68.12    340
68.14    348
68.16    328
68.18    362
68.2     397
68.22    433
68.24    426
68.26    386
68.28    392
68.3     312
68.32    290
68.34    274
68.36    243
68.38    253
68.4     240
68.42    204
68.44    206
68.46    296
68.48    381
68.5     419
68.52    466
68.54    505
68.56    582
68.58    620
68.6     602
68.62    615
68.64    656
68.66    722
68.68    728
68.7     698
68.72    628
68.74    619
68.76    672
68.78    732
68.8     831
68.82    1019
68.84    1234
68.86    1544
68.88    1948
68.9     2421
68.92    2926
68.94    3386
68.96    3822
68.98    4100
69.0     4270
69.02    4197
69.04    3967
69.06    3614
69.08    3196
69.1     2801
69.12    2347
69.14    1957
69.16    1637
69.18    1439
69.2     1251
69.22    1075
69.24    960
69.26    879
69.28    800
69.3     699
69.32    651
69.34    639
69.36    606
69.38    639
69.4     590
69.42    568
69.44    592
69.46    593
69.48    518
69.5     478
69.52    522
69.54    447
69.56    367
69.58    293
69.6     274
69.62    275
69.64    257
69.66    242
69.68    301
69.7     362
69.72    410
69.74    412
69.76    410
69.78    397
69.8     383
69.82    360
69.84    345
69.86    353
69.88    419
69.9     441
69.92    414
69.94    446
69.96    395
69.98    399
70.0     358
70.02    340
70.04    339
70.06    322
70.08    339
70.1     354
70.12    341
70.14    352
70.16    331
70.18    373
70.2     372
70.22    435
70.24    434
70.26    455
70.28    453
70.3     498
70.32    461
70.34    456
70.36    496
70.38    550
70.4     637
70.42    736
70.44    820
70.46    930
70.48    1060
70.5     1174
70.52    1343
70.54    1560
70.56    1709
70.58    1837
70.6     1961
70.62    2025
70.64    2040
70.66    1928
70.68    1777
70.7     1591
70.72    1449
70.74    1260
70.76    1053
70.78    975
70.8     903
70.82    804
70.84    721
70.86    607
70.88    559
70.9     498
70.92    424
70.94    447
70.96    486
70.98    509
71.0     480
71.02    444
71.04    432
71.06    409
71.08    386
71.1     289
71.12    230
71.14    252
71.16    255
71.18    287
71.2     275
71.22    309
71.24    361
71.26    432
71.28    467
71.3     475
71.32    550
71.34    594
71.36    558
71.38    522
71.4     433
71.42    397
71.44    350
71.46    271
71.48    262
71.5     292
71.52    304
71.54    248
71.56    281
71.58    277
71.6     298
71.62    313
71.64    298
71.66    281
71.68    281
71.7     283
71.72    228
71.74    301
71.76    411
71.78    431
71.8     429
71.82    386
71.84    323
71.86    269
71.88    213
71.9     206
71.92    205
71.94    305
71.96    284
71.98    284
72.0     273
72.02    304
72.04    362
72.06    468
72.08    545
72.1     583
72.12    657
72.14    697
72.16    689
72.18    678
72.2     739
72.22    766
72.24    780
72.26    779
72.28    814
72.3     893
72.32    1061
72.34    1174
72.36    1348
72.38    1602
72.4     1911
72.42    2198
72.44    2564
72.46    3048
72.48    3648
72.5     4151
72.52    4633
72.54    5008
72.56    5182
72.58    5171
72.6     4930
72.62    4514
72.64    4056
72.66    3613
72.68    3089
72.7     2628
72.72    2308
72.74    1983
72.76    1621
72.78    1358
72.8     1124
72.82    931
72.84    803
72.86    713
72.88    561
72.9     571
72.92    543
72.94    477
72.96    436
72.98    568
73.0     585
73.02    601
73.04    576
73.06    583
73.08    555
73.1     545
73.12    484
73.14    414
73.16    388
73.18    470
73.2     385
73.22    407
73.24    462
73.26    526
73.28    555
73.3     607
73.32    652
73.34    678
73.36    720
73.38    772
73.4     832
73.42    909
73.44    962
73.46    980
73.48    982
73.5     1022
73.52    948
73.54    849
73.56    768
73.58    751
73.6     676
73.62    582
73.64    602
73.66    616
73.68    629
73.7     625
73.72    575
73.74    526
73.76    510
73.78    582
73.8     547
73.82    571
73.84    588
73.86    490
73.88    454
73.9     440
73.92    409
73.94    436
73.96    456
73.98    544
74.0     535
74.02    568
74.04    561
74.06    534
74.08    637
74.1     709
74.12    804
74.14    936
74.16    1013
74.18    1162
74.2     1314
74.22    1569
74.24    1804
74.26    2009
74.28    2254
74.3     2358
74.32    2376
74.34    2230
74.36    2105
74.38    1933
74.4     1723
74.42    1513
74.44    1298
74.46    1174
74.48    1155
74.5     1025
74.52    941
74.54    899
74.56    912
74.58    849
74.6     798
74.62    819
74.64    863
74.66    938
74.68    1025
74.7     1038
74.72    1140
74.74    1290
74.76    1385
74.78    1512
74.8     1733
74.82    1979
74.84    2098
74.86    2194
74.88    2260
74.9     2213
74.92    2084
74.94    1945
74.96    1709
74.98    1522
75.0     1398
75.02    1187
75.04    943
75.06    809
75.08    707
75.1     560
75.12    492
75.14    479
75.16    429
75.18    488
75.2     521
75.22    483
75.24    488
75.26    547
75.28    548
75.3     524
75.32    566
75.34    550
75.36    496
75.38    491
75.4     417
75.42    402
75.44    407
75.46    391
75.48    338
75.5     314
75.52    335
75.54    277
75.56    222
75.58    233
75.6     260
75.62    293
75.64    281
75.66    280
75.68    299
75.7     345
75.72    365
75.74    327
75.76    322
75.78    368
75.8     393
75.82    413
75.84    404
75.86    480
75.88    488
75.9     501
75.92    416
75.94    332
75.96    241
75.98    198
76.0     172
76.02    135
76.04    161
76.06    213
76.08    176
76.1     222
76.12    239
76.14    310
76.16    399
76.18    481
76.2     489
76.22    486
76.24    493
76.26    423
76.28    322
76.3     288
76.32    260
76.34    282
76.36    242
76.38    219
76.4     214
76.42    284
76.44    331
76.46    365
76.48    372
76.5     444
76.52    446
76.54    420
76.56    337
76.58    357
76.6     397
76.62    386
76.64    339
76.66    301
76.68    267
76.7     308
76.72    261
76.74    223
76.76    208
76.78    245
76.8     325
76.82    291
76.84    322
76.86    416
76.88    479
76.9     580
76.92    545
76.94    532
76.96    479
76.98    459
77.0     465
77.02    410
77.04    485
77.06    482
77.08    450
77.1     424
77.12    353
77.14    402
77.16    432
77.18    502
77.2     565
77.22    623
77.24    685
77.26    638
77.28    633
77.3     775
77.32    947
77.34    1176
77.36    1329
77.38    1513
77.4     1727
77.42    1974
77.44    2246
77.46    2625
77.48    3095
77.5     3780
77.52    4363
77.54    4856
77.56    5203
77.58    5541
77.6     5672
77.62    5553
77.64    5294
77.66    4929
77.68    4433
77.7     3914
77.72    3361
77.74    2835
77.76    2433
77.78    2139
77.8     1838
77.82    1574
77.84    1378
77.86    1217
77.88    1043
77.9     898
77.92    857
77.94    801
77.96    804
77.98    758
78.0     734
78.02    736
78.04    686
78.06    661
78.08    618
78.1     558
78.12    491
78.14    439
78.16    401
78.18    345
78.2     319
78.22    316
78.24    293
78.26    279
78.28    297
78.3     263
78.32    220
78.34    225
78.36    269
78.38    281
78.4     316
78.42    336
78.44    353
78.46    320
78.48    340
78.5     312
78.52    279
78.54    297
78.56    308
78.58    296
78.6     331
78.62    283
78.64    211
78.66    173
78.68    174
78.7     153
78.72    184
78.74    243
78.76    305
78.78    348
78.8     371
78.82    321
78.84    252
78.86    289
78.88    304
78.9     254
78.92    304
78.94    328
78.96    345
78.98    302
79.0     310
79.02    300
79.04    269
79.06    362
79.08    407
79.1     346
79.12    358
79.14    319
79.16    226
79.18    153
79.2     151
79.22    137
79.24    142
79.26    170
79.28    129
79.3     75
79.32    110
79.34    141
79.36    223
79.38    319
79.4     451
79.42    495
79.44    514
79.46    510
79.48    425
79.5     414
79.52    440
79.54    460
79.56    468
79.58    425
79.6     365
79.62    273
79.64    209
79.66    224
79.68    158
79.7     186
79.72    256
79.74    300
79.76    290
79.78    268
79.8     231
79.82    245
79.84    257
79.86    296
79.88    317
79.9     362
79.92    437
79.94    454
79.96    418
79.98    381
80.0     389
80.02    456
80.04    438
80.06    436
80.08    496
80.1     542
80.12    550
80.14    526
80.16    445
80.18    421
80.2     416
80.22    429
80.24    372
80.26    361
80.28    412
80.3     415
80.32    361
80.34    319
80.36    257
80.38    235
80.4     262
80.42    309
80.44    351
80.46    373
80.48    421
80.5     345
80.52    276
80.54    299
80.56    273
80.58    224
80.6     271
80.62    307
80.64    273
80.66    278
80.68    278
80.7     212
80.72    245
80.74    380
80.76    390
80.78    315
80.8     330
80.82    332
80.84    237
80.86    262
80.88    280
80.9     267
80.92    288
80.94    336
80.96    313
80.98    229
81.0     216
81.02    294
81.04    306
81.06    355
81.08    431
81.1     424
81.12    409
81.14    384
81.16    375
81.18    279
81.2     250
81.22    319
81.24    306
81.26    214
81.28    149
81.3     48
81.32    41
81.34    85
81.36    100
81.38    69
81.4     140
81.42    248
81.44    300
81.46    243
81.48    209
81.5     222
81.52    306
81.54    337
81.56    338
81.58    282
81.6     311
81.62    354
81.64    310
81.66    267
81.68    301
81.7     300
81.72    270
81.74    225
81.76    249
81.78    225
81.8     184
81.82    202
81.84    147
81.86    172
81.88    223
81.9     256
81.92    290
81.94    293
81.96    280
81.98    288
82.0     205
82.02    164
82.04    160
82.06    189
82.08    272
82.1     431
82.12    461
82.14    420
82.16    383
82.18    361
82.2     309
82.22    200
82.24    193
82.26    204
82.28    281
82.3     355
82.32    331
82.34    371
82.36    332
82.38    289
82.4     287
82.42    212
82.44    165
82.46    149
82.48    179
82.5     203
82.52    234
82.54    315
82.56    264
82.58    295
82.6     292
82.62    234
82.64    190
82.66    144
82.68    140
82.7     138
82.72    173
82.74    221
82.76    231
82.78    322
82.8     346
82.82    354
82.84    405
82.86    410
82.88    355
82.9     294
82.92    276
82.94    286
82.96    242
82.98    212
83.0     170
83.02    174
83.04    197
83.06    215
83.08    189
83.1     193
83.12    235
83.14    326
83.16    337
83.18    349
83.2     296
83.22    323
83.24    279
83.26    290
83.28    268
83.3     298
83.32    216
83.34    249
83.36    219
83.38    184
83.4     83
83.42    60
83.44    49
83.46    10
83.48    4
83.5     122
83.52    170
83.54    238
83.56    230
83.58    306
83.6     281
83.62    234
83.64    181
83.66    190
83.68    189
83.7     223
83.72    291
83.74    249
83.76    162
83.78    192
83.8     187
83.82    208
83.84    254
83.86    285
83.88    316
83.9     329
83.92    335
83.94    335
83.96    310
83.98    298
84.0     313
84.02    300
84.04    281
84.06    234
84.08    183
84.1     153
84.12    111
84.14    137
84.16    176
84.18    179
84.2     191
84.22    221
84.24    236
84.26    212
84.28    248
84.3     304
84.32    274
84.34    313
84.36    361
84.38    342
84.4     332
84.42    286
84.44    224
84.46    161
84.48    185
84.5     184
84.52    161
84.54    194
84.56    226
84.58    273
84.6     359
84.62    374
84.64    393
84.66    387
84.68    402
84.7     447
84.72    471
84.74    422
84.76    368
84.78    366
84.8     358
84.82    345
84.84    295
84.86    290
84.88    320
84.9     413
84.92    417
84.94    414
84.96    337
84.98    332
85.0     359
85.02    343
85.04    379
85.06    433
85.08    431
85.1     494
85.12    431
85.14    399
85.16    305
85.18    283
85.2     232
85.22    203
85.24    248
85.26    249
85.28    211
85.3     251
85.32    235
85.34    260
85.36    270
85.38    270
85.4     267
85.42    306
85.44    316
85.46    320
85.48    353
85.5     367
85.52    361
85.54    356
85.56    315
85.58    275
85.6     293
85.62    302
85.64    308
85.66    308
85.68    316
85.7     317
85.72    294
85.74    236
85.76    173
85.78    198
85.8     237
85.82    256
85.84    325
85.86    376
85.88    401
85.9     449
85.92    376
85.94    327
85.96    287
85.98    298
86.0     269
86.02    237
86.04    255
86.06    247
86.08    235
86.1     215
86.12    127
86.14    183
86.16    225
86.18    309
86.2     351
86.22    377
86.24    440
86.26    432
86.28    508
86.3     617
86.32    692
86.34    768
86.36    842
86.38    897
86.4     924
86.42    967
86.44    960
86.46    940
86.48    997
86.5     1049
86.52    1003
86.54    923
86.56    810
86.58    711
86.6     686
86.62    683
86.64    581
86.66    626
86.68    613
86.7     599
86.72    595
86.74    574
86.76    507
86.78    447
86.8     434
86.82    475
86.84    430
86.86    416
86.88    336
86.9     281
86.92    281
86.94    244
86.96    235
86.98    200
87.0     227
87.02    284
87.04    350
87.06    336
87.08    356
87.1     319
87.12    312
87.14    312
87.16    354
87.18    353
87.2     353
87.22    341
87.24    335
87.26    305
87.28    292
87.3     241
87.32    240
87.34    230
87.36    278
87.38    342
87.4     398
87.42    364
87.44    285
87.46    271
87.48    254
87.5     281
87.52    272
87.54    278
87.56    290
87.58    360
87.6     363
87.62    285
87.64    266
87.66    230
87.68    247
87.7     332
87.72    370
87.74    385
87.76    328
87.78    294
87.8     242
87.82    240
87.84    296
87.86    286
87.88    383
87.9     477
87.92    447
87.94    379
87.96    320
87.98    252
88.0     174
88.02    167
88.04    192
88.06    259
88.08    338
88.1     343
88.12    290
88.14    270
88.16    246
88.18    197
88.2     157
88.22    163
88.24    203
88.26    234
88.28    265
88.3     295
88.32    282
88.34    269
88.36    238
88.38    243
88.4     289
88.42    324
88.44    334
88.46    352
88.48    426
88.5     463
88.52    450
88.54    449
88.56    411
88.58    398
88.6     421
88.62    402
88.64    375
88.66    272
88.68    217
88.7     132
88.72    80
88.74    69
88.76    37
88.78    38
88.8     119
88.82    79
88.84    124
88.86    105
88.88    123
88.9     172
88.92    250
88.94    317
88.96    325
88.98    352
89.0     356
89.02    247
89.04    240
89.06    261
89.08    239
89.1     326
89.12    372
89.14    417
89.16    404
89.18    350
89.2     288
89.22    216
89.24    256
89.26    271
89.28    286
89.3     347
89.32    358
89.34    377
89.36    393
89.38    281
89.4     211
89.42    178
89.44    231
89.46    200
89.48    264
89.5     305
89.52    329
89.54    337
89.56    361
89.58    334
89.6     288
89.62    267
89.64    239
89.66    220
89.68    312
89.7     328
89.72    312
89.74    307
89.76    371
89.78    427
89.8     409
89.82    437
89.84    457
89.86    420
89.88    404
89.9     341
89.92    342
89.94    371
89.96    333
89.98    316
90.0     321
