?
5.0      995
5.02     995
5.04     1293
5.06     1244
5.08     1273
5.1      1270
5.12     1237
5.14     1261
5.16     1238
5.18     1224
5.2      1238
5.22     1258
5.24     1274
5.26     1285
5.28     1300
5.3      1276
5.32     1302
5.34     1313
5.36     1279
5.38     1313
5.4      1291
5.42     1306
5.44     1276
5.46     1251
5.48     1225
5.5      1265
5.52     1270
5.54     1273
5.56     1292
5.58     1345
5.6      1329
5.62     1334
5.64     1290
5.66     1268
5.68     1268
5.7      1257
5.72     1275
5.74     1238
5.76     1232
5.78     1246
5.8      1191
5.82     1198
5.84     1192
5.86     1225
5.88     1242
5.9      1231
5.92     1283
5.94     1246
5.96     1278
5.98     1273
6.0      1221
6.02     1247
6.04     1246
6.06     1228
6.08     1215
6.1      1248
6.12     1271
6.14     1266
6.16     1322
6.18     1284
6.2      1273
6.22     1262
6.24     1216
6.26     1170
6.28     1181
6.3      1232
6.32     1239
6.34     1270
6.36     1328
6.38     1282
6.4      1317
6.42     1298
6.44     1268
6.46     1268
6.48     1288
6.5      1334
6.52     1306
6.54     1314
6.56     1329
6.58     1319
6.6      1347
6.62     1323
6.64     1286
6.66     1282
6.68     1296
6.7      1275
6.72     1227
6.74     1247
6.76     1270
6.78     1265
6.8      1253
6.82     1255
6.84     1221
6.86     1241
6.88     1237
6.9      1189
6.92     1236
6.94     1233
6.96     1259
6.98     1284
7.0      1298
7.02     1311
7.04     1318
7.06     1349
7.08     1324
7.1      1318
7.12     1349
7.14     1293
7.16     1284
7.18     1260
7.2      1269
7.22     1254
7.24     1297
7.26     1288
7.28     1272
7.3      1306
7.32     1353
7.34     1321
7.36     1283
7.38     1283
7.4      1297
7.42     1341
7.44     1312
7.46     1250
7.48     1212
7.5      1221
7.52     1230
7.54     1215
7.56     1196
7.58     1203
7.6      1257
7.62     1323
7.64     1282
7.66     1278
7.68     1249
7.7      1219
7.72     1236
7.74     1229
7.76     1245
7.78     1232
7.8      1259
7.82     1251
7.84     1245
7.86     1243
7.88     1235
7.9      1227
7.92     1262
7.94     1275
7.96     1323
7.98     1288
8.0      1326
8.02     1294
8.04     1310
8.06     1277
8.08     1296
8.1      1253
8.12     1262
8.14     1257
8.16     1248
8.18     1260
8.2      1256
8.22     1235
8.24     1228
8.26     1180
8.28     1155
8.3      1121
8.32     1121
8.34     1105
8.36     1128
8.38     1153
8.4      1185
8.42     1188
8.44     1168
8.46     1173
8.48     1171
8.5      1153
8.52     1178
8.54     1181
8.56     1212
8.58     1220
8.6      1223
8.62     1200
8.64     1223
8.66     1209
8.68     1225
8.7      1198
8.72     1221
8.74     1219
8.76     1189
8.78     1177
8.8      1168
8.82     1202
8.84     1215
8.86     1145
8.88     1160
8.9      1124
8.92     1120
8.94     1115
8.96     1051
8.98     1118
9.0      1101
9.02     1113
9.04     1121
9.06     1072
9.08     1073
9.1      1045
9.12     1074
9.14     1082
9.16     1109
9.18     1156
9.2      1067
9.22     1092
9.24     1084
9.26     1079
9.28     1081
9.3      1080
9.32     1105
9.34     1111
9.36     1102
9.38     1080
9.4      1054
9.42     1068
9.44     1058
9.46     1074
9.48     1039
9.5      1007
9.52     1026
9.54     983
9.56     941
9.58     971
9.6      1007
9.62     992
9.64     1015
9.66     1006
9.68     1039
9.7      1014
9.72     1094
9.74     1060
9.76     1056
9.78     1077
9.8      1056
9.82     971
9.84     943
9.86     927
9.88     1000
9.9      952
9.92     954
9.94     963
9.96     939
9.98     962
10.0     915
10.02    920
10.04    909
10.06    959
10.08    1075
10.1     1091
10.12    1081
10.14    1137
10.16    1063
10.18    1063
10.2     996
10.22    980
10.24    943
10.26    953
10.28    995
10.3     968
10.32    984
10.34    1032
10.36    1009
10.38    1044
10.4     1013
10.42    996
10.44    988
10.46    953
10.48    955
10.5     930
10.52    978
10.54    1029
10.56    1068
10.58    1115
10.6     1098
10.62    1044
10.64    1014
10.66    1009
10.68    973
10.7     994
10.72    1003
10.74    1002
10.76    1030
10.78    1027
10.8     1047
10.82    1009
10.84    973
10.86    942
10.88    928
10.9     959
10.92    918
10.94    900
10.96    940
10.98    983
11.0     1044
11.02    1097
11.04    1083
11.06    1087
11.08    1119
11.1     1120
11.12    1100
11.14    1044
11.16    1032
11.18    1036
11.2     1040
11.22    1036
11.24    992
11.26    988
11.28    984
11.3     974
11.32    999
11.34    983
11.36    1000
11.38    1085
11.4     1110
11.42    1105
11.44    1095
11.46    1107
11.48    1093
11.5     1061
11.52    1099
11.54    1065
11.56    1038
11.58    1114
11.6     1080
11.62    1087
11.64    1084
11.66    1107
11.68    1147
11.7     1156
11.72    1193
11.74    1142
11.76    1125
11.78    1188
11.8     1179
11.82    1173
11.84    1212
11.86    1199
11.88    1190
11.9     1176
11.92    1167
11.94    1178
11.96    1186
11.98    1169
12.0     1166
12.02    1142
12.04    1136
12.06    1116
12.08    1130
12.1     1116
12.12    1172
12.14    1228
12.16    1158
12.18    1125
12.2     1145
12.22    1142
12.24    1154
12.26    1182
12.28    1224
12.3     1189
12.32    1237
12.34    1219
12.36    1204
12.38    1214
12.4     1259
12.42    1265
12.44    1243
12.46    1246
12.48    1213
12.5     1181
12.52    1174
12.54    1219
12.56    1224
12.58    1219
12.6     1259
12.62    1214
12.64    1228
12.66    1220
12.68    1209
12.7     1208
12.72    1179
12.74    1199
12.76    1176
12.78    1208
12.8     1232
12.82    1246
12.84    1282
12.86    1255
12.88    1316
12.9     1254
12.92    1188
12.94    1189
12.96    1155
12.98    1172
13.0     1186
13.02    1136
13.04    1138
13.06    1155
13.08    1188
13.1     1135
13.12    1134
13.14    1177
13.16    1205
13.18    1252
13.2     1289
13.22    1262
13.24    1252
13.26    1232
13.28    1182
13.3     1144
13.32    1151
13.34    1200
13.36    1228
13.38    1232
13.4     1227
13.42    1259
13.44    1224
13.46    1182
13.48    1140
13.5     1171
13.52    1260
13.54    1255
13.56    1223
13.58    1213
13.6     1209
13.62    1261
13.64    1233
13.66    1138
13.68    1126
13.7     1194
13.72    1199
13.74    1165
13.76    1209
13.78    1243
13.8     1243
13.82    1240
13.84    1237
13.86    1162
13.88    1123
13.9     1157
13.92    1144
13.94    1182
13.96    1193
13.98    1193
14.0     1135
14.02    1115
14.04    1129
14.06    1075
14.08    1069
14.1     1180
14.12    1215
14.14    1137
14.16    1141
14.18    1167
14.2     1136
14.22    1142
14.24    1180
14.26    1191
14.28    1234
14.3     1300
14.32    1242
14.34    1179
14.36    1224
14.38    1214
14.4     1195
14.42    1180
14.44    1202
14.46    1216
14.48    1193
14.5     1216
14.52    1217
14.54    1220
14.56    1183
14.58    1097
14.6     1109
14.62    1085
14.64    1058
14.66    1099
14.68    1094
14.7     1115
14.72    1189
14.74    1236
14.76    1193
14.78    1151
14.8     1213
14.82    1242
14.84    1256
14.86    1298
14.88    1209
14.9     1186
14.92    1297
14.94    1324
14.96    1247
14.98    1222
15.0     1268
15.02    1295
15.04    1297
15.06    1212
15.08    1084
15.1     1080
15.12    1121
15.14    1085
15.16    1060
15.18    1050
15.2     1113
15.22    1159
15.24    1189
15.26    1169
15.28    1218
15.3     1224
15.32    1193
15.34    1159
15.36    1152
15.38    1139
15.4     1166
15.42    1142
15.44    1152
15.46    1228
15.48    1292
15.5     1235
15.52    1212
15.54    1229
15.56    1246
15.58    1224
15.6     1181
15.62    1150
15.64    1195
15.66    1240
15.68    1219
15.7     1234
15.72    1293
15.74    1284
15.76    1272
15.78    1286
15.8     1366
15.82    1450
15.84    1518
15.86    1469
15.88    1503
15.9     1579
15.92    1603
15.94    1603
15.96    1660
15.98    1780
16.0     1897
16.02    1998
16.04    2045
16.06    2059
16.08    2137
16.1     2237
16.12    2372
16.14    2530
16.16    2710
16.18    2997
16.2     3285
16.22    3655
16.24    4039
16.26    4500
16.28    5010
16.3     5686
16.32    6528
16.34    7558
16.36    8861
16.38    10499
16.4     12535
16.42    15132
16.44    18481
16.46    22816
16.48    28433
16.5     35680
16.52    43996
16.54    51516
16.56    56332
16.58    57000
16.6     53266
16.62    45814
16.64    36036
16.66    25669
16.68    16534
16.7     10120
16.72    6604
16.74    5039
16.76    4363
16.78    3838
16.8     3413
16.82    3075
16.84    2789
16.86    2644
16.88    2416
16.9     2279
16.92    2207
16.94    2108
16.96    1970
16.98    1888
17.0     1845
17.02    1797
17.04    1739
17.06    1687
17.08    1637
17.1     1699
17.12    1730
17.14    1678
17.16    1638
17.18    1610
17.2     1489
17.22    1388
17.24    1386
17.26    1339
17.28    1345
17.3     1339
17.32    1335
17.34    1323
17.36    1363
17.38    1386
17.4     1299
17.42    1224
17.44    1344
17.46    1382
17.48    1314
17.5     1170
17.52    1142
17.54    1175
17.56    1170
17.58    1141
17.6     1104
17.62    1120
17.64    1251
17.66    1279
17.68    1236
17.7     1121
17.72    1111
17.74    1121
17.76    1046
17.78    1019
17.8     1040
17.82    1112
17.84    1161
17.86    1119
17.88    1116
17.9     1137
17.92    1070
17.94    1037
17.96    1034
17.98    1046
18.0     1079
18.02    1074
18.04    1004
18.06    977
18.08    1053
18.1     1159
18.12    1111
18.14    1083
18.16    1084
18.18    1042
18.2     964
18.22    889
18.24    900
18.26    959
18.28    980
18.3     956
18.32    976
18.34    1039
18.36    1035
18.38    993
18.4     953
18.42    970
18.44    1011
18.46    993
18.48    981
18.5     987
18.52    1046
18.54    1113
18.56    1089
18.58    1047
18.6     1127
18.62    1076
18.64    987
18.66    904
18.68    924
18.7     927
18.72    880
18.74    891
18.76    919
18.78    999
18.8     1150
18.82    1078
18.84    1004
18.86    972
18.88    986
18.9     974
18.92    955
18.94    963
18.96    1038
18.98    1095
19.0     1084
19.02    994
19.04    925
19.06    887
19.08    887
19.1     932
19.12    945
19.14    972
19.16    944
19.18    968
19.2     945
19.22    923
19.24    877
19.26    825
19.28    834
19.3     849
19.32    845
19.34    875
19.36    835
19.38    945
19.4     966
19.42    958
19.44    933
19.46    912
19.48    901
19.5     901
19.52    915
19.54    853
19.56    820
19.58    796
19.6     733
19.62    711
19.64    705
19.66    716
19.68    745
19.7     900
19.72    994
19.74    993
19.76    991
19.78    933
19.8     933
19.82    949
19.84    861
19.86    827
19.88    858
19.9     873
19.92    831
19.94    833
19.96    817
19.98    742
20.0     786
20.02    818
20.04    783
20.06    836
20.08    864
20.1     788
20.12    782
20.14    766
20.16    778
20.18    758
20.2     830
20.22    821
20.24    838
20.26    913
20.28    924
20.3     912
20.32    902
20.34    911
20.36    967
20.38    976
20.4     934
20.42    887
20.44    880
20.46    900
20.48    869
20.5     845
20.52    840
20.54    904
20.56    892
20.58    842
20.6     864
20.62    883
20.64    852
20.66    793
20.68    783
20.7     837
20.72    911
20.74    946
20.76    873
20.78    872
20.8     878
20.82    880
20.84    777
20.86    722
20.88    755
20.9     807
20.92    810
20.94    784
20.96    732
20.98    819
21.0     835
21.02    889
21.04    793
21.06    775
21.08    779
21.1     789
21.12    750
21.14    754
21.16    730
21.18    805
21.2     765
21.22    732
21.24    646
21.26    647
21.28    716
21.3     754
21.32    799
21.34    788
21.36    795
21.38    868
21.4     871
21.42    857
21.44    797
21.46    755
21.48    795
21.5     774
21.52    752
21.54    657
21.56    695
21.58    766
21.6     810
21.62    792
21.64    770
21.66    766
21.68    825
21.7     823
21.72    791
21.74    773
21.76    771
21.78    751
21.8     739
21.82    779
21.84    793
21.86    797
21.88    723
21.9     718
21.92    676
21.94    651
21.96    619
21.98    596
22.0     622
22.02    722
22.04    719
22.06    758
22.08    735
22.1     750
22.12    714
22.14    676
22.16    621
22.18    574
22.2     558
22.22    576
22.24    510
22.26    561
22.28    635
22.3     722
22.32    723
22.34    725
22.36    682
22.38    705
22.4     746
22.42    756
22.44    696
22.46    701
22.48    715
22.5     750
22.52    738
22.54    720
22.56    685
22.58    726
22.6     753
22.62    759
22.64    697
22.66    599
22.68    523
22.7     508
22.72    517
22.74    532
22.76    569
22.78    665
22.8     723
22.82    716
22.84    660
22.86    601
22.88    616
22.9     635
22.92    687
22.94    696
22.96    689
22.98    710
23.0     693
23.02    666
23.04    651
23.06    662
23.08    666
23.1     640
23.12    580
23.14    526
23.16    536
23.18    570
23.2     600
23.22    632
23.24    653
23.26    686
23.28    686
23.3     602
23.32    542
23.34    539
23.36    589
23.38    674
23.4     699
23.42    703
23.44    670
23.46    652
23.48    651
23.5     647
23.52    683
23.54    724
23.56    778
23.58    786
23.6     686
23.62    637
23.64    542
23.66    502
23.68    532
23.7     615
23.72    692
23.74    790
23.76    765
23.78    692
23.8     628
23.82    681
23.84    685
23.86    715
23.88    736
23.9     721
23.92    694
23.94    672
23.96    623
23.98    602
24.0     560
24.02    501
24.04    472
24.06    493
24.08    522
24.1     558
24.12    622
24.14    616
24.16    683
24.18    637
24.2     602
24.22    505
24.24    466
24.26    476
24.28    506
24.3     599
24.32    632
24.34    599
24.36    586
24.38    567
24.4     570
24.42    485
24.44    428
24.46    448
24.48    523
24.5     585
24.52    586
24.54    571
24.56    513
24.58    555
24.6     534
24.62    553
24.64    599
24.66    617
24.68    638
24.7     619
24.72    621
24.74    629
24.76    691
24.78    716
24.8     691
24.82    667
24.84    623
24.86    554
24.88    512
24.9     495
24.92    524
24.94    533
24.96    646
24.98    653
25.0     625
25.02    548
25.04    491
25.06    510
25.08    523
25.1     552
25.12    531
25.14    504
25.16    510
25.18    493
25.2     477
25.22    523
25.24    542
25.26    604
25.28    608
25.3     597
25.32    518
25.34    513
25.36    450
25.38    444
25.4     477
25.42    516
25.44    513
25.46    513
25.48    528
25.5     543
25.52    555
25.54    616
25.56    669
25.58    672
25.6     642
25.62    554
25.64    534
25.66    507
25.68    535
25.7     546
25.72    569
25.74    588
25.76    575
25.78    535
25.8     529
25.82    501
25.84    454
25.86    435
25.88    450
25.9     504
25.92    592
25.94    593
25.96    591
25.98    631
26.0     668
26.02    661
26.04    616
26.06    596
26.08    586
26.1     568
26.12    595
26.14    514
26.16    507
26.18    542
26.2     557
26.22    593
26.24    557
26.26    560
26.28    583
26.3     638
26.32    688
26.34    650
26.36    626
26.38    587
26.4     491
26.42    443
26.44    436
26.46    492
26.48    516
26.5     535
26.52    511
26.54    503
26.56    490
26.58    503
26.6     437
26.62    471
26.64    522
26.66    559
26.68    587
26.7     505
26.72    504
26.74    451
26.76    397
26.78    373
26.8     284
26.82    333
26.84    374
26.86    478
26.88    560
26.9     589
26.92    685
26.94    677
26.96    608
26.98    522
27.0     456
27.02    475
27.04    482
27.06    461
27.08    393
27.1     414
27.12    427
27.14    471
27.16    465
27.18    490
27.2     517
27.22    503
27.24    503
27.26    470
27.28    433
27.3     494
27.32    481
27.34    497
27.36    449
27.38    414
27.4     331
27.42    332
27.44    388
27.46    421
27.48    489
27.5     536
27.52    543
27.54    538
27.56    507
27.58    484
27.6     454
27.62    507
27.64    520
27.66    535
27.68    555
27.7     516
27.72    518
27.74    532
27.76    525
27.78    461
27.8     423
27.82    433
27.84    430
27.86    431
27.88    437
27.9     404
27.92    392
27.94    416
27.96    376
27.98    321
28.0     435
28.02    545
28.04    542
28.06    512
28.08    497
28.1     466
28.12    403
28.14    405
28.16    385
28.18    392
28.2     505
28.22    529
28.24    495
28.26    505
28.28    510
28.3     495
28.32    403
28.34    448
28.36    470
28.38    429
28.4     444
28.42    409
28.44    447
28.46    507
28.48    536
28.5     540
28.52    509
28.54    525
28.56    537
28.58    486
28.6     518
28.62    535
28.64    567
28.66    538
28.68    551
28.7     554
28.72    522
28.74    542
28.76    556
28.78    552
28.8     525
28.82    515
28.84    419
28.86    294
28.88    303
28.9     264
28.92    253
28.94    425
28.96    482
28.98    595
29.0     604
29.02    593
29.04    567
29.06    455
29.08    486
29.1     440
29.12    442
29.14    515
29.16    435
29.18    419
29.2     356
29.22    321
29.24    349
29.26    362
29.28    437
29.3     481
29.32    527
29.34    479
29.36    463
29.38    457
29.4     410
29.42    447
29.44    485
29.46    521
29.48    512
29.5     518
29.52    507
29.54    403
29.56    394
29.58    355
29.6     366
29.62    448
29.64    475
29.66    480
29.68    518
29.7     474
29.72    420
29.74    392
29.76    387
29.78    425
29.8     485
29.82    522
29.84    530
29.86    590
29.88    601
29.9     592
29.92    572
29.94    514
29.96    485
29.98    442
30.0     412
30.02    426
30.04    474
30.06    600
30.08    648
30.1     640
30.12    611
30.14    525
30.16    549
30.18    567
30.2     552
30.22    545
30.24    536
30.26    556
30.28    510
30.3     430
30.32    438
30.34    394
30.36    441
30.38    535
30.4     499
30.42    501
30.44    424
30.46    414
30.48    395
30.5     397
30.52    376
30.54    397
30.56    461
30.58    565
30.6     552
30.62    525
30.64    467
30.66    464
30.68    442
30.7     448
30.72    460
30.74    529
30.76    553
30.78    589
30.8     527
30.82    454
30.84    393
30.86    320
30.88    355
30.9     412
30.92    461
30.94    503
30.96    494
30.98    501
31.0     463
31.02    415
31.04    394
31.06    385
31.08    504
31.1     556
31.12    566
31.14    555
31.16    458
31.18    414
31.2     354
31.22    308
31.24    315
31.26    312
31.28    399
31.3     405
31.32    413
31.34    427
31.36    358
31.38    361
31.4     376
31.42    436
31.44    500
31.46    559
31.48    579
31.5     552
31.52    561
31.54    527
31.56    508
31.58    504
31.6     481
31.62    482
31.64    429
31.66    454
31.68    377
31.7     365
31.72    388
31.74    336
31.76    429
31.78    454
31.8     455
31.82    523
31.84    507
31.86    533
31.88    483
31.9     495
31.92    459
31.94    404
31.96    431
31.98    385
32.0     410
32.02    475
32.04    475
32.06    451
32.08    471
32.1     509
32.12    541
32.14    603
32.16    668
32.18    645
32.2     670
32.22    685
32.24    662
32.26    607
32.28    560
32.3     569
32.32    672
32.34    702
32.36    759
32.38    730
32.4     712
32.42    704
32.44    737
32.46    643
32.48    586
32.5     521
32.52    491
32.54    393
32.56    398
32.58    425
32.6     504
32.62    626
32.64    712
32.66    702
32.68    646
32.7     483
32.72    430
32.74    348
32.76    390
32.78    490
32.8     594
32.82    682
32.84    710
32.86    736
32.88    649
32.9     610
32.92    607
32.94    553
32.96    530
32.98    519
33.0     465
33.02    448
33.04    528
33.06    616
33.08    615
33.1     718
33.12    755
33.14    794
33.16    856
33.18    905
33.2     905
33.22    893
33.24    916
33.26    944
33.28    910
33.3     1037
33.32    1132
33.34    1281
33.36    1590
33.38    1932
33.4     2380
33.42    2966
33.44    3719
33.46    4811
33.48    6325
33.5     8305
33.52    10329
33.54    12070
33.56    13160
33.58    13291
33.6     12591
33.62    10985
33.64    8829
33.66    6644
33.68    4790
33.7     3462
33.72    2572
33.74    2069
33.76    1711
33.78    1410
33.8     1278
33.82    1068
33.84    953
33.86    922
33.88    886
33.9     840
33.92    849
33.94    837
33.96    776
33.98    665
34.0     633
34.02    595
34.04    618
34.06    689
34.08    764
34.1     769
34.12    802
34.14    736
34.16    672
34.18    611
34.2     589
34.22    520
34.24    621
34.26    684
34.28    738
34.3     735
34.32    709
34.34    661
34.36    573
34.38    516
34.4     514
34.42    451
34.44    548
34.46    559
34.48    565
34.5     556
34.52    517
34.54    514
34.56    475
34.58    530
34.6     647
34.62    643
34.64    673
34.66    675
34.68    656
34.7     670
34.72    690
34.74    715
34.76    733
34.78    820
34.8     831
34.82    758
34.84    766
34.86    807
34.88    917
34.9     1039
34.92    1173
34.94    1363
34.96    1683
34.98    2148
35.0     2787
35.02    3809
35.04    5468
35.06    7749
35.08    10214
35.1     12194
35.12    13321
35.14    13395
35.16    12352
35.18    10406
35.2     7942
35.22    5423
35.24    3459
35.26    2200
35.28    1481
35.3     1109
35.32    929
35.34    889
35.36    885
35.38    917
35.4     939
35.42    920
35.44    871
35.46    783
35.48    732
35.5     733
35.52    704
35.54    751
35.56    743
35.58    751
35.6     765
35.62    753
35.64    716
35.66    687
35.68    699
35.7     707
35.72    663
35.74    698
35.76    713
35.78    764
35.8     768
35.82    803
35.84    777
35.86    765
35.88    793
35.9     804
35.92    714
35.94    740
35.96    746
35.98    735
36.0     732
36.02    838
36.04    774
36.06    744
36.08    779
36.1     779
36.12    792
36.14    937
36.16    1040
36.18    1244
36.2     1494
36.22    1719
36.24    1841
36.26    1970
36.28    2237
36.3     2613
36.32    3263
36.34    4238
36.36    5796
36.38    8192
36.4     11673
36.42    16221
36.44    21195
36.46    25336
36.48    27818
36.5     28044
36.52    25985
36.54    22021
36.56    16961
36.58    11815
36.6     7601
36.62    4834
36.64    3310
36.66    2479
36.68    2004
36.7     1748
36.72    1604
36.74    1483
36.76    1361
36.78    1271
36.8     1164
36.82    1042
36.84    954
36.86    874
36.88    826
36.9     812
36.92    799
36.94    827
36.96    825
36.98    812
37.0     803
37.02    830
37.04    757
37.06    726
37.08    704
37.1     678
37.12    687
37.14    723
37.16    731
37.18    732
37.2     746
37.22    786
37.24    711
37.26    737
37.28    775
37.3     846
37.32    949
37.34    1064
37.36    1113
37.38    1127
37.4     1079
37.42    969
37.44    795
37.46    682
37.48    606
37.5     506
37.52    535
37.54    600
37.56    649
37.58    695
37.6     714
37.62    701
37.64    678
37.66    662
37.68    691
37.7     670
37.72    686
37.74    671
37.76    647
37.78    563
37.8     539
37.82    533
37.84    550
37.86    573
37.88    694
37.9     720
37.92    719
37.94    740
37.96    756
37.98    731
38.0     739
38.02    714
38.04    724
38.06    704
38.08    742
38.1     657
38.12    582
38.14    524
38.16    458
38.18    374
38.2     352
38.22    343
38.24    426
38.26    512
38.28    583
38.3     572
38.32    540
38.34    501
38.36    422
38.38    419
38.4     453
38.42    499
38.44    536
38.46    661
38.48    646
38.5     600
38.52    564
38.54    523
38.56    462
38.58    536
38.6     570
38.62    577
38.64    557
38.66    662
38.68    598
38.7     510
38.72    522
38.74    507
38.76    495
38.78    538
38.8     538
38.82    473
38.84    480
38.86    514
38.88    448
38.9     403
38.92    435
38.94    485
38.96    543
38.98    610
39.0     624
39.02    630
39.04    637
39.06    654
39.08    620
39.1     631
39.12    615
39.14    687
39.16    739
39.18    696
39.2     603
39.22    530
39.24    376
39.26    332
39.28    327
39.3     379
39.32    471
39.34    591
39.36    704
39.38    706
39.4     658
39.42    620
39.44    522
39.46    487
39.48    476
39.5     481
39.52    507
39.54    548
39.56    633
39.58    649
39.6     615
39.62    622
39.64    596
39.66    498
39.68    452
39.7     463
39.72    453
39.74    514
39.76    664
39.78    726
39.8     770
39.82    774
39.84    740
39.86    584
39.88    533
39.9     489
39.92    419
39.94    420
39.96    491
39.98    540
40.0     609
40.02    655
40.04    731
40.06    763
40.08    825
40.1     853
40.12    843
40.14    806
40.16    780
40.18    771
40.2     715
40.22    745
40.24    811
40.26    856
40.28    900
40.3     885
40.32    869
40.34    848
40.36    881
40.38    889
40.4     908
40.42    941
40.44    913
40.46    894
40.48    859
40.5     849
40.52    867
40.54    902
40.56    949
40.58    997
40.6     1035
40.62    1028
40.64    1001
40.66    1036
40.68    1065
40.7     1133
40.72    1131
40.74    1156
40.76    1122
40.78    1094
40.8     1064
40.82    1045
40.84    1090
40.86    1124
40.88    1139
40.9     1178
40.92    1261
40.94    1279
40.96    1305
40.98    1419
41.0     1508
41.02    1552
41.04    1583
41.06    1591
41.08    1600
41.1     1680
41.12    1889
41.14    1992
41.16    2295
41.18    2617
41.2     2913
41.22    3183
41.24    3521
41.26    4040
41.28    4612
41.3     5392
41.32    6529
41.34    7860
41.36    9704
41.38    12081
41.4     15497
41.42    20507
41.44    27951
41.46    39037
41.48    53700
41.5     70193
41.52    85093
41.54    94920
41.56    97626
41.58    92567
41.6     80913
41.62    64805
41.64    47663
41.66    32739
41.68    22027
41.7     15339
41.72    11296
41.74    8687
41.76    6869
41.78    5544
41.8     4646
41.82    3995
41.84    3628
41.86    3220
41.88    2969
41.9     2768
41.92    2551
41.94    2355
41.96    2092
41.98    1931
42.0     1805
42.02    1750
42.04    1660
42.06    1589
42.08    1563
42.1     1496
42.12    1374
42.14    1249
42.16    1182
42.18    1182
42.2     1251
42.22    1308
42.24    1355
42.26    1410
42.28    1411
42.3     1345
42.32    1194
42.34    1037
42.36    1006
42.38    899
42.4     933
42.42    907
42.44    939
42.46    947
42.48    927
42.5     964
42.52    894
42.54    886
42.56    896
42.58    876
42.6     934
42.62    905
42.64    984
42.66    979
42.68    921
42.7     915
42.72    839
42.74    844
42.76    858
42.78    857
42.8     866
42.82    862
42.84    932
42.86    862
42.88    816
42.9     782
42.92    742
42.94    768
42.96    820
42.98    842
43.0     854
43.02    884
43.04    842
43.06    731
43.08    677
43.1     622
43.12    597
43.14    545
43.16    571
43.18    604
43.2     663
43.22    664
43.24    656
43.26    643
43.28    720
43.3     774
43.32    787
43.34    770
43.36    736
43.38    685
43.4     628
43.42    568
43.44    583
43.46    653
43.48    758
43.5     782
43.52    836
43.54    876
43.56    820
43.58    783
43.6     730
43.62    693
43.64    637
43.66    644
43.68    574
43.7     496
43.72    481
43.74    522
43.76    547
43.78    599
43.8     656
43.82    720
43.84    741
43.86    742
43.88    739
43.9     681
43.92    683
43.94    714
43.96    691
43.98    688
44.0     621
44.02    611
44.04    540
44.06    501
44.08    523
44.1     523
44.12    689
44.14    686
44.16    739
44.18    772
44.2     663
44.22    647
44.24    531
44.26    549
44.28    576
44.3     583
44.32    668
44.34    665
44.36    736
44.38    718
44.4     630
44.42    591
44.44    506
44.46    484
44.48    490
44.5     484
44.52    579
44.54    655
44.56    721
44.58    717
44.6     699
44.62    696
44.64    593
44.66    465
44.68    424
44.7     408
44.72    470
44.74    452
44.76    563
44.78    612
44.8     706
44.82    787
44.84    802
44.86    851
44.88    864
44.9     921
44.92    1001
44.94    1151
44.96    1419
44.98    1641
45.0     1933
45.02    2197
45.04    2334
45.06    2338
45.08    2132
45.1     1904
45.12    1574
45.14    1295
45.16    1039
45.18    791
45.2     698
45.22    689
45.24    709
45.26    716
45.28    728
45.3     819
45.32    771
45.34    747
45.36    669
45.38    579
45.4     517
45.42    505
45.44    569
45.46    537
45.48    626
45.5     636
45.52    657
45.54    640
45.56    567
45.58    599
45.6     554
45.62    601
45.64    578
45.66    517
45.68    580
45.7     508
45.72    540
45.74    463
45.76    474
45.78    519
45.8     532
45.82    596
45.84    609
45.86    621
45.88    655
45.9     695
45.92    734
45.94    656
45.96    637
45.98    580
46.0     550
46.02    506
46.04    488
46.06    480
46.08    531
46.1     590
46.12    624
46.14    612
46.16    602
46.18    581
46.2     548
46.22    504
46.24    491
46.26    512
46.28    493
46.3     484
46.32    519
46.34    602
46.36    606
46.38    607
46.4     612
46.42    651
46.44    690
46.46    701
46.48    675
46.5     675
46.52    674
46.54    690
46.56    616
46.58    532
46.6     490
46.62    459
46.64    499
46.66    517
46.68    527
46.7     542
46.72    546
46.74    569
46.76    543
46.78    485
46.8     492
46.82    473
46.84    513
46.86    437
46.88    442
46.9     470
46.92    467
46.94    524
46.96    518
46.98    493
47.0     591
47.02    579
47.04    542
47.06    467
47.08    511
47.1     532
47.12    520
47.14    528
47.16    493
47.18    524
47.2     567
47.22    519
47.24    545
47.26    540
47.28    574
47.3     577
47.32    568
47.34    533
47.36    521
47.38    512
47.4     482
47.42    460
47.44    495
47.46    499
47.48    540
47.5     567
47.52    552
47.54    546
47.56    563
47.58    547
47.6     569
47.62    569
47.64    659
47.66    667
47.68    685
47.7     676
47.72    607
47.74    563
47.76    501
47.78    472
47.8     423
47.82    435
47.84    510
47.86    477
47.88    534
47.9     574
47.92    652
47.94    692
47.96    720
47.98    758
48.0     710
48.02    681
48.04    590
48.06    500
48.08    426
48.1     400
48.12    437
48.14    436
48.16    497
48.18    558
48.2     580
48.22    593
48.24    589
48.26    589
48.28    568
48.3     564
48.32    529
48.34    535
48.36    572
48.38    552
48.4     514
48.42    514
48.44    466
48.46    409
48.48    330
48.5     296
48.52    295
48.54    386
48.56    490
48.58    603
48.6     692
48.62    745
48.64    728
48.66    657
48.68    541
48.7     455
48.72    343
48.74    378
48.76    398
48.78    473
48.8     456
48.82    440
48.84    474
48.86    439
48.88    440
48.9     412
48.92    367
48.94    462
48.96    456
48.98    496
49.0     468
49.02    433
49.04    454
49.06    434
49.08    451
49.1     443
49.12    435
49.14    509
49.16    530
49.18    575
49.2     569
49.22    550
49.24    560
49.26    478
49.28    462
49.3     422
49.32    424
49.34    492
49.36    491
49.38    536
49.4     607
49.42    566
49.44    543
49.46    465
49.48    483
49.5     485
49.52    481
49.54    483
49.56    492
49.58    536
49.6     555
49.62    479
49.64    435
49.66    437
49.68    468
49.7     496
49.72    493
49.74    470
49.76    534
49.78    580
49.8     549
49.82    444
49.84    370
49.86    391
49.88    387
49.9     342
49.92    320
49.94    328
49.96    417
49.98    460
50.0     448
50.02    405
50.04    453
50.06    489
50.08    477
50.1     414
50.12    471
50.14    475
50.16    557
50.18    550
50.2     630
50.22    636
50.24    637
50.26    534
50.28    464
50.3     438
50.32    466
50.34    416
50.36    449
50.38    466
50.4     581
50.42    608
50.44    599
50.46    508
50.48    454
50.5     427
50.52    383
50.54    280
50.56    240
50.58    300
50.6     383
50.62    460
50.64    512
50.66    560
50.68    591
50.7     600
50.72    629
50.74    575
50.76    537
50.78    515
50.8     457
50.82    446
50.84    464
50.86    452
50.88    478
50.9     534
50.92    612
50.94    577
50.96    518
50.98    486
51.0     470
51.02    485
51.04    468
51.06    416
51.08    507
51.1     615
51.12    639
51.14    590
51.16    562
51.18    567
51.2     585
51.22    505
51.24    412
51.26    386
51.28    489
51.3     551
51.32    595
51.34    553
51.36    568
51.38    577
51.4     563
51.42    424
51.44    382
51.46    375
51.48    430
51.5     464
51.52    528
51.54    488
51.56    553
51.58    545
51.6     553
51.62    488
51.64    476
51.66    486
51.68    464
51.7     475
51.72    494
51.74    451
51.76    429
51.78    412
51.8     437
51.82    425
51.84    474
51.86    477
51.88    496
51.9     586
51.92    609
51.94    591
51.96    531
51.98    574
52.0     638
52.02    629
52.04    646
52.06    622
52.08    641
52.1     754
52.12    709
52.14    649
52.16    708
52.18    794
52.2     792
52.22    754
52.24    698
52.26    709
52.28    643
52.3     653
52.32    481
52.34    397
52.36    475
52.38    469
52.4     361
52.42    397
52.44    451
52.46    586
52.48    622
52.5     598
52.52    549
52.54    626
52.56    684
52.58    627
52.6     484
52.62    493
52.64    552
52.66    538
52.68    485
52.7     457
52.72    487
52.74    671
52.76    725
52.78    698
52.8     727
52.82    761
52.84    747
52.86    628
52.88    518
52.9     480
52.92    497
52.94    530
52.96    525
52.98    582
53.0     717
53.02    779
53.04    809
53.06    751
53.08    765
53.1     841
53.12    912
53.14    918
53.16    947
53.18    1030
53.2     1170
53.22    1245
53.24    1304
53.26    1354
53.28    1493
53.3     1734
53.32    2081
53.34    2488
53.36    3091
53.38    4004
53.4     5116
53.42    6266
53.44    7331
53.46    8011
53.48    8283
53.5     8072
53.52    7371
53.54    6305
53.56    5147
53.58    4086
53.6     3208
53.62    2534
53.64    2115
53.66    1767
53.68    1595
53.7     1401
53.72    1232
53.74    1154
53.76    1087
53.78    1067
53.8     980
53.82    917
53.84    947
53.86    960
53.88    921
53.9     839
53.92    693
53.94    668
53.96    626
53.98    568
54.0     486
54.02    517
54.04    542
54.06    649
54.08    672
54.1     710
54.12    736
54.14    797
54.16    806
54.18    712
54.2     591
54.22    528
54.24    433
54.26    397
54.28    322
54.3     292
54.32    369
54.34    452
54.36    443
54.38    360
54.4     385
54.42    485
54.44    565
54.46    645
54.48    656
54.5     741
54.52    840
54.54    822
54.56    633
54.58    498
54.6     413
54.62    319
54.64    291
54.66    267
54.68    305
54.7     447
54.72    561
54.74    641
54.76    718
54.78    732
54.8     699
54.82    606
54.84    516
54.86    366
54.88    320
54.9     279
54.92    241
54.94    312
54.96    409
54.98    454
55.0     611
55.02    742
55.04    776
55.06    787
55.08    804
55.1     705
55.12    557
55.14    535
55.16    421
55.18    338
55.2     348
55.22    379
55.24    336
55.26    390
55.28    434
55.3     434
55.32    452
55.34    552
55.36    538
55.38    576
55.4     627
55.42    688
55.44    678
55.46    687
55.48    645
55.5     583
55.52    516
55.54    525
55.56    459
55.58    470
55.6     497
55.62    582
55.64    594
55.66    661
55.68    700
55.7     727
55.72    716
55.74    695
55.76    576
55.78    450
55.8     366
55.82    286
55.84    244
55.86    263
55.88    315
55.9     391
55.92    507
55.94    587
55.96    661
55.98    660
56.0     692
56.02    621
56.04    620
56.06    538
56.08    479
56.1     434
56.12    378
56.14    377
56.16    413
56.18    477
56.2     507
56.22    540
56.24    607
56.26    634
56.28    689
56.3     687
56.32    613
56.34    570
56.36    517
56.38    520
56.4     465
56.42    430
56.44    389
56.46    402
56.48    484
56.5     492
56.52    510
56.54    482
56.56    522
56.58    596
56.6     609
56.62    626
56.64    605
56.66    591
56.68    597
56.7     561
56.72    538
56.74    442
56.76    437
56.78    413
56.8     347
56.82    359
56.84    379
56.86    396
56.88    494
56.9     527
56.92    600
56.94    601
56.96    612
56.98    557
57.0     512
57.02    478
57.04    469
57.06    475
57.08    490
57.1     483
57.12    537
57.14    567
57.16    588
57.18    657
57.2     692
57.22    778
57.24    856
57.26    925
57.28    900
57.3     837
57.32    774
57.34    729
57.36    662
57.38    616
57.4     559
57.42    570
57.44    613
57.46    655
57.48    693
57.5     697
57.52    698
57.54    714
57.56    726
57.58    768
57.6     760
57.62    726
57.64    788
57.66    804
57.68    849
57.7     846
57.72    850
57.74    859
57.76    911
57.78    925
57.8     899
57.82    920
57.84    1011
57.86    1101
57.88    1242
57.9     1393
57.92    1518
57.94    1686
57.96    1838
57.98    1935
58.0     2079
58.02    2227
58.04    2420
58.06    2717
58.08    3117
58.1     3538
58.12    4128
58.14    5084
58.16    6329
58.18    8016
58.2     10124
58.22    12488
58.24    14905
58.26    17014
58.28    18317
58.3     18505
58.32    17704
58.34    16008
58.36    13682
58.38    11260
58.4     8944
58.42    7011
58.44    5550
58.46    4438
58.48    3682
58.5     3128
58.52    2719
58.54    2350
58.56    2088
58.58    2002
58.6     1877
58.62    1764
58.64    1562
58.66    1322
58.68    1213
58.7     1094
58.72    1001
58.74    860
58.76    797
58.78    791
58.8     805
58.82    788
58.84    717
58.86    683
58.88    674
58.9     661
58.92    764
58.94    802
58.96    821
58.98    787
59.0     814
59.02    803
59.04    718
59.06    680
59.08    575
59.1     520
59.12    524
59.14    523
59.16    421
59.18    394
59.2     501
59.22    557
59.24    598
59.26    680
59.28    717
59.3     779
59.32    815
59.34    788
59.36    630
59.38    634
59.4     570
59.42    487
59.44    378
59.46    380
59.48    356
59.5     364
59.52    432
59.54    419
59.56    488
59.58    571
59.6     560
59.62    542
59.64    548
59.66    576
59.68    506
59.7     544
59.72    565
59.74    574
59.76    619
59.78    598
59.8     556
59.82    586
59.84    620
59.86    509
59.88    505
59.9     521
59.92    524
59.94    545
59.96    540
59.98    530
60.0     489
60.02    528
60.04    520
60.06    479
60.08    521
60.1     521
60.12    588
60.14    548
60.16    523
60.18    557
60.2     518
60.22    526
60.24    527
60.26    531
60.28    492
60.3     478
60.32    447
60.34    372
60.36    393
60.38    459
60.4     443
60.42    521
60.44    600
60.46    611
60.48    574
60.5     586
60.52    580
60.54    595
60.56    590
60.58    583
60.6     513
60.62    508
60.64    511
60.66    442
60.68    404
60.7     384
60.72    395
60.74    401
60.76    414
60.78    453
60.8     463
60.82    499
60.84    575
60.86    621
60.88    596
60.9     579
60.92    574
60.94    520
60.96    497
60.98    506
61.0     506
61.02    472
61.04    507
61.06    566
61.08    536
61.1     519
61.12    510
61.14    507
61.16    525
61.18    505
61.2     507
61.22    493
61.24    521
61.26    573
61.28    572
61.3     541
61.32    500
61.34    496
61.36    467
61.38    441
61.4     435
61.42    431
61.44    423
61.46    473
61.48    519
61.5     559
61.52    606
61.54    664
61.56    778
61.58    821
61.6     849
61.62    843
61.64    814
61.66    817
61.68    751
61.7     732
61.72    732
61.74    751
61.76    832
61.78    836
61.8     896
61.82    934
61.84    1030
61.86    1222
61.88    1384
61.9     1620
61.92    1867
61.94    2196
61.96    2602
61.98    3129
62.0     3810
62.02    4786
62.04    6228
62.06    8377
62.08    11111
62.1     14118
62.12    17189
62.14    19610
62.16    20976
62.18    20968
62.2     19606
62.22    17185
62.24    14133
62.26    11087
62.28    8423
62.3     6208
62.32    4716
62.34    3598
62.36    2831
62.38    2237
62.4     1871
62.42    1652
62.44    1416
62.46    1252
62.48    1180
62.5     1085
62.52    1028
62.54    983
62.56    950
62.58    888
62.6     887
62.62    860
62.64    773
62.66    723
62.68    724
62.7     689
62.72    677
62.74    605
62.76    571
62.78    539
62.8     539
62.82    530
62.84    531
62.86    586
62.88    638
62.9     613
62.92    689
62.94    646
62.96    628
62.98    589
63.0     588
63.02    591
63.04    576
63.06    604
63.08    647
63.1     555
63.12    556
63.14    498
63.16    474
63.18    488
63.2     498
63.22    497
63.24    488
63.26    505
63.28    600
63.3     553
63.32    582
63.34    616
63.36    654
63.38    713
63.4     660
63.42    633
63.44    578
63.46    480
63.48    477
63.5     384
63.52    415
63.54    453
63.56    436
63.58    481
63.6     469
63.62    574
63.64    638
63.66    611
63.68    652
63.7     601
63.72    582
63.74    546
63.76    505
63.78    515
63.8     479
63.82    514
63.84    494
63.86    467
63.88    519
63.9     499
63.92    486
63.94    534
63.96    561
63.98    592
64.0     576
64.02    552
64.04    455
64.06    397
64.08    416
64.1     411
64.12    391
64.14    421
64.16    454
64.18    460
64.2     484
64.22    547
64.24    528
64.26    536
64.28    591
64.3     609
64.32    572
64.34    568
64.36    547
64.38    503
64.4     511
64.42    524
64.44    513
64.46    515
64.48    574
64.5     626
64.52    719
64.54    842
64.56    960
64.58    1126
64.6     1290
64.62    1404
64.64    1483
64.66    1562
64.68    1737
64.7     1948
64.72    2309
64.74    2790
64.76    3352
64.78    3964
64.8     4594
64.82    5048
64.84    5307
64.86    5239
64.88    4953
64.9     4428
64.92    3803
64.94    3187
64.96    2629
64.98    2145
65.0     1814
65.02    1464
65.04    1307
65.06    1095
65.08    925
65.1     756
65.12    654
65.14    593
65.16    582
65.18    576
65.2     540
65.22    509
65.24    560
65.26    599
65.28    585
65.3     562
65.32    521
65.34    500
65.36    534
65.38    535
65.4     495
65.42    522
65.44    495
65.46    457
65.48    411
65.5     420
65.52    382
65.54    409
65.56    416
65.58    427
65.6     401
65.62    447
65.64    437
65.66    410
65.68    440
65.7     520
65.72    570
65.74    559
65.76    569
65.78    626
65.8     596
65.82    586
65.84    499
65.86    409
65.88    330
65.9     252
65.92    201
65.94    160
65.96    192
65.98    232
66.0     255
66.02    344
66.04    412
66.06    449
66.08    516
66.1     510
66.12    547
66.14    499
66.16    506
66.18    436
66.2     368
66.22    351
66.24    295
66.26    262
66.28    275
66.3     250
66.32    272
66.34    289
66.36    402
66.38    436
66.4     452
66.42    507
66.44    503
66.46    524
66.48    560
66.5     503
66.52    458
66.54    431
66.56    407
66.58    403
66.6     354
66.62    396
66.64    386
66.66    383
66.68    427
66.7     435
66.72    418
66.74    409
66.76    433
66.78    442
66.8     404
66.82    445
66.84    404
66.86    371
66.88    391
66.9     395
66.92    386
66.94    451
66.96    503
66.98    555
67.0     530
67.02    500
67.04    495
67.06    515
67.08    523
67.1     454
67.12    438
67.14    417
67.16    432
67.18    435
67.2     453
67.22    465
67.24    557
67.26    617
67.28    632
67.3     609
67.32    645
67.34    533
67.36    465
67.38    350
67.4     334
67.42    290
67.44    291
67.46    264
67.48    280
67.5     322
67.52    393
67.54    358
67.56    422
67.58    417
67.6     472
67.62    434
67.64    404
67.66    360
67.68    346
67.7     334
67.72    351
67.74    406
67.76    490
67.78    435
67.8     451
67.82    431
67.84    381
67.86    388
67.88    402
67.9     435
67.92    443
67.94    447
67.96    497
67.98    486
68.0     511
68.02    484
68.04    376
68.06    440
68.08    451
68.1     402
68.12    362
68.14    305
68.16    373
68.18    410
68.2     467
68.22    450
68.24    486
68.26    564
68.28    594
68.3     525
68.32    493
68.34    479
68.36    465
68.38    456
68.4     459
68.42    451
68.44    447
68.46    430
68.48    479
68.5     434
68.52    437
68.54    549
68.56    565
68.58    602
68.6     660
68.62    709
68.64    695
68.66    735
68.68    717
68.7     769
68.72    803
68.74    929
68.76    962
68.78    1048
68.8     1215
68.82    1374
68.84    1582
68.86    1895
68.88    2318
68.9     2850
68.92    3384
68.94    3889
68.96    4327
68.98    4668
69.0     4835
69.02    4700
69.04    4435
69.06    4005
69.08    3518
69.1     2968
69.12    2458
69.14    2020
69.16    1785
69.18    1499
69.2     1271
69.22    1092
69.24    998
69.26    853
69.28    750
69.3     612
69.32    530
69.34    579
69.36    585
69.38    553
69.4     556
69.42    584
69.44    612
69.46    579
69.48    591
69.5     580
69.52    600
69.54    621
69.56    623
69.58    642
69.6     589
69.62    560
69.64    574
69.66    576
69.68    584
69.7     565
69.72    551
69.74    579
69.76    572
69.78    545
69.8     507
69.82    494
69.84    470
69.86    478
69.88    440
69.9     446
69.92    497
69.94    519
69.96    504
69.98    538
70.0     527
70.02    512
70.04    470
70.06    501
70.08    518
70.1     526
70.12    487
70.14    492
70.16    497
70.18    508
70.2     517
70.22    513
70.24    527
70.26    515
70.28    532
70.3     534
70.32    540
70.34    598
70.36    654
70.38    719
70.4     774
70.42    863
70.44    924
70.46    1033
70.48    1258
70.5     1418
70.52    1595
70.54    1810
70.56    2014
70.58    2137
70.6     2201
70.62    2247
70.64    2210
70.66    2135
70.68    1965
70.7     1777
70.72    1571
70.74    1413
70.76    1203
70.78    1054
70.8     935
70.82    806
70.84    690
70.86    566
70.88    518
70.9     505
70.92    437
70.94    416
70.96    377
70.98    411
71.0     472
71.02    500
71.04    537
71.06    598
71.08    640
71.1     622
71.12    584
71.14    572
71.16    544
71.18    537
71.2     524
71.22    519
71.24    451
71.26    396
71.28    352
71.3     296
71.32    304
71.34    366
71.36    406
71.38    432
71.4     399
71.42    419
71.44    383
71.46    408
71.48    419
71.5     437
71.52    484
71.54    525
71.56    487
71.58    450
71.6     421
71.62    450
71.64    424
71.66    458
71.68    459
71.7     458
71.72    454
71.74    441
71.76    376
71.78    432
71.8     488
71.82    472
71.84    452
71.86    506
71.88    488
71.9     484
71.92    502
71.94    523
71.96    528
71.98    595
72.0     594
72.02    571
72.04    556
72.06    574
72.08    572
72.1     601
72.12    608
72.14    624
72.16    578
72.18    549
72.2     555
72.22    587
72.24    619
72.26    753
72.28    902
72.3     1026
72.32    1174
72.34    1248
72.36    1366
72.38    1617
72.4     1964
72.42    2375
72.44    2894
72.46    3510
72.48    4170
72.5     4803
72.52    5345
72.54    5674
72.56    5830
72.58    5698
72.6     5285
72.62    4714
72.64    4079
72.66    3472
72.68    2934
72.7     2502
72.72    2147
72.74    1864
72.76    1631
72.78    1373
72.8     1200
72.82    1110
72.84    1044
72.86    981
72.88    856
72.9     819
72.92    753
72.94    724
72.96    743
72.98    720
73.0     757
73.02    720
73.04    693
73.06    630
73.08    549
73.1     575
73.12    559
73.14    620
73.16    615
73.18    641
73.2     608
73.22    542
73.24    553
73.26    539
73.28    597
73.3     580
73.32    602
73.34    690
73.36    693
73.38    719
73.4     833
73.42    981
73.44    1087
73.46    1206
73.48    1323
73.5     1362
73.52    1502
73.54    1453
73.56    1284
73.58    1152
73.6     1130
73.62    944
73.64    780
73.66    671
73.68    667
73.7     650
73.72    635
73.74    493
73.76    409
73.78    387
73.8     377
73.82    362
73.84    378
73.86    379
73.88    436
73.9     460
73.92    477
73.94    527
73.96    596
73.98    616
74.0     668
74.02    756
74.04    754
74.06    779
74.08    794
74.1     899
74.12    942
74.14    1030
74.16    1135
74.18    1217
74.2     1424
74.22    1660
74.24    1910
74.26    2218
74.28    2488
74.3     2693
74.32    2732
74.34    2626
74.36    2448
74.38    2173
74.4     1945
74.42    1636
74.44    1389
74.46    1238
74.48    1147
74.5     1108
74.52    1044
74.54    956
74.56    927
74.58    898
74.6     888
74.62    793
74.64    792
74.66    840
74.68    947
74.7     1093
74.72    1195
74.74    1316
74.76    1552
74.78    1775
74.8     1910
74.82    2058
74.84    2284
74.86    2410
74.88    2455
74.9     2405
74.92    2286
74.94    2106
74.96    1971
74.98    1725
75.0     1424
75.02    1228
75.04    1119
75.06    986
75.08    867
75.1     858
75.12    835
75.14    763
75.16    757
75.18    642
75.2     624
75.22    631
75.24    675
75.26    645
75.28    618
75.3     676
75.32    637
75.34    592
75.36    622
75.38    530
75.4     601
75.42    570
75.44    517
75.46    465
75.48    499
75.5     512
75.52    463
75.54    470
75.56    464
75.58    359
75.6     355
75.62    262
75.64    289
75.66    342
75.68    405
75.7     404
75.72    441
75.74    519
75.76    498
75.78    450
75.8     506
75.82    520
75.84    595
75.86    560
75.88    511
75.9     493
75.92    442
75.94    366
75.96    261
75.98    198
76.0     258
76.02    260
76.04    335
76.06    354
76.08    410
76.1     417
76.12    389
76.14    364
76.16    385
76.18    363
76.2     373
76.22    327
76.24    352
76.26    311
76.28    326
76.3     263
76.32    297
76.34    308
76.36    356
76.38    316
76.4     245
76.42    220
76.44    215
76.46    211
76.48    277
76.5     312
76.52    377
76.54    397
76.56    458
76.58    476
76.6     453
76.62    520
76.64    548
76.66    520
76.68    542
76.7     469
76.72    412
76.74    324
76.76    277
76.78    280
76.8     271
76.82    344
76.84    365
76.86    357
76.88    356
76.9     366
76.92    421
76.94    372
76.96    385
76.98    461
77.0     515
77.02    541
77.04    569
77.06    586
77.08    586
77.1     601
77.12    589
77.14    569
77.16    623
77.18    668
77.2     721
77.22    758
77.24    841
77.26    891
77.28    896
77.3     872
77.32    941
77.34    1061
77.36    1207
77.38    1373
77.4     1663
77.42    2085
77.44    2526
77.46    3070
77.48    3635
77.5     4288
77.52    5030
77.54    5689
77.56    6171
77.58    6457
77.6     6540
77.62    6429
77.64    6000
77.66    5398
77.68    4667
77.7     3915
77.72    3226
77.74    2656
77.76    2172
77.78    1815
77.8     1600
77.82    1464
77.84    1342
77.86    1160
77.88    1031
77.9     961
77.92    875
77.94    857
77.96    797
77.98    738
78.0     704
78.02    620
78.04    524
78.06    414
78.08    392
78.1     440
78.12    438
78.14    464
78.16    435
78.18    409
78.2     364
78.22    300
78.24    269
78.26    300
78.28    344
78.3     387
78.32    414
78.34    389
78.36    347
78.38    265
78.4     250
78.42    198
78.44    233
78.46    335
78.48    422
78.5     471
78.52    499
78.54    463
78.56    436
78.58    444
78.6     434
78.62    388
78.64    406
78.66    460
78.68    443
78.7     411
78.72    402
78.74    376
78.76    373
78.78    448
78.8     385
78.82    371
78.84    387
78.86    390
78.88    391
78.9     397
78.92    400
78.94    368
78.96    335
78.98    370
79.0     346
79.02    328
79.04    339
79.06    280
79.08    293
79.1     209
79.12    132
79.14    96
79.16    131
79.18    225
79.2     300
79.22    337
79.24    395
79.26    452
79.28    494
79.3     447
79.32    407
79.34    451
79.36    465
79.38    460
79.4     424
79.42    357
79.44    352
79.46    378
79.48    295
79.5     242
79.52    195
79.54    187
79.56    192
79.58    218
79.6     249
79.62    265
79.64    303
79.66    361
79.68    329
79.7     317
79.72    318
79.74    324
79.76    400
79.78    373
79.8     411
79.82    398
79.84    361
79.86    355
79.88    343
79.9     373
79.92    448
79.94    518
79.96    611
79.98    580
80.0     618
80.02    625
80.04    558
80.06    542
80.08    521
80.1     555
80.12    604
80.14    568
80.16    519
80.18    453
80.2     365
80.22    381
80.24    288
80.26    252
80.28    276
80.3     308
80.32    357
80.34    244
80.36    172
80.38    193
80.4     236
80.42    292
80.44    281
80.46    306
80.48    356
80.5     348
80.52    359
80.54    346
80.56    333
80.58    417
80.6     501
80.62    465
80.64    438
80.66    380
80.68    283
80.7     248
80.72    238
80.74    294
80.76    345
80.78    380
80.8     401
80.82    328
80.84    263
80.86    236
80.88    218
80.9     220
80.92    236
80.94    223
80.96    244
80.98    244
81.0     242
81.02    182
81.04    206
81.06    303
81.08    342
81.1     355
81.12    320
81.14    202
81.16    149
81.18    154
81.2     146
81.22    172
81.24    290
81.26    396
81.28    421
81.3     448
81.32    404
81.34    313
81.36    300
81.38    284
81.4     274
81.42    307
81.44    335
81.46    303
81.48    263
81.5     228
81.52    164
81.54    107
81.56    180
81.58    233
81.6     218
81.62    250
81.64    288
81.66    316
81.68    323
81.7     323
81.72    296
81.74    308
81.76    377
81.78    389
81.8     315
81.82    291
81.84    341
81.86    376
81.88    329
81.9     323
81.92    284
81.94    278
81.96    289
81.98    268
82.0     228
82.02    194
82.04    222
82.06    259
82.08    209
82.1     164
82.12    150
82.14    165
82.16    168
82.18    170
82.2     199
82.22    180
82.24    249
82.26    284
82.28    317
82.3     320
82.32    357
82.34    365
82.36    370
82.38    336
82.4     311
82.42    297
82.44    326
82.46    293
82.48    388
82.5     466
82.52    448
82.54    459
82.56    458
82.58    443
82.6     430
82.62    448
82.64    423
82.66    365
82.68    393
82.7     382
82.72    316
82.74    246
82.76    196
82.78    211
82.8     161
82.82    195
82.84    175
82.86    155
82.88    175
82.9     204
82.92    271
82.94    243
82.96    246
82.98    302
83.0     342
83.02    340
83.04    284
83.06    298
83.08    259
83.1     308
83.12    349
83.14    285
83.16    284
83.18    280
83.2     332
83.22    274
83.24    243
83.26    239
83.28    267
83.3     325
83.32    273
83.34    196
83.36    156
83.38    133
83.4     171
83.42    202
83.44    255
83.46    307
83.48    357
83.5     329
83.52    298
83.54    274
83.56    256
83.58    333
83.6     360
83.62    448
83.64    477
83.66    384
83.68    297
83.7     265
83.72    288
83.74    315
83.76    357
83.78    418
83.8     412
83.82    382
83.84    226
83.86    110
83.88    13
83.9     50
83.92    109
83.94    165
83.96    138
83.98    137
84.0     112
84.02    98
84.04    89
84.06    123
84.08    151
84.1     302
84.12    337
84.14    384
84.16    338
84.18    337
84.2     316
84.22    308
84.24    344
84.26    364
84.28    388
84.3     393
84.32    349
84.34    347
84.36    277
84.38    239
84.4     228
84.42    169
84.44    173
84.46    214
84.48    247
84.5     257
84.52    235
84.54    152
84.56    121
84.58    132
84.6     163
84.62    148
84.64    214
84.66    351
84.68    454
84.7     524
84.72    504
84.74    446
84.76    440
84.78    444
84.8     520
84.82    571
84.84    671
84.86    736
84.88    675
84.9     602
84.92    411
84.94    237
84.96    89
84.98    114
85.0     170
85.02    289
85.04    391
85.06    413
85.08    398
85.1     340
85.12    273
85.14    212
85.16    179
85.18    297
85.2     319
85.22    399
85.24    366
85.26    303
85.28    251
85.3     198
85.32    256
85.34    256
85.36    319
85.38    401
85.4     406
85.42    413
85.44    366
85.46    242
85.48    174
85.5     143
85.52    170
85.54    183
85.56    223
85.58    232
85.6     215
85.62    179
85.64    148
85.66    107
85.68    190
85.7     225
85.72    277
85.74    298
85.76    313
85.78    284
85.8     206
85.82    151
85.84    156
85.86    170
85.88    252
85.9     282
85.92    358
85.94    350
85.96    342
85.98    282
86.0     290
86.02    323
86.04    316
86.06    297
86.08    344
86.1     306
86.12    384
86.14    390
86.16    346
86.18    335
86.2     425
86.22    499
86.24    537
86.26    559
86.28    621
86.3     580
86.32    724
86.34    788
86.36    823
86.38    884
86.4     915
86.42    1015
86.44    1036
86.46    1039
86.48    1026
86.5     981
86.52    963
86.54    907
86.56    858
86.58    778
86.6     645
86.62    638
86.64    560
86.66    524
86.68    464
86.7     406
86.72    376
86.74    391
86.76    424
86.78    421
86.8     440
86.82    483
86.84    464
86.86    447
86.88    428
86.9     404
86.92    419
86.94    344
86.96    335
86.98    304
87.0     328
87.02    331
87.04    291
87.06    311
87.08    288
87.1     336
87.12    312
87.14    202
87.16    198
87.18    173
87.2     237
87.22    317
87.24    351
87.26    370
87.28    356
87.3     400
87.32    304
87.34    276
87.36    301
87.38    282
87.4     333
87.42    333
87.44    315
87.46    271
87.48    205
87.5     185
87.52    113
87.54    158
87.56    222
87.58    258
87.6     288
87.62    247
87.64    244
87.66    218
87.68    159
87.7     213
87.72    201
87.74    238
87.76    263
87.78    276
87.8     309
87.82    238
87.84    218
87.86    202
87.88    232
87.9     303
87.92    309
87.94    322
87.96    308
87.98    278
88.0     308
88.02    222
88.04    177
88.06    167
88.08    181
88.1     173
88.12    142
88.14    151
88.16    133
88.18    168
88.2     228
88.22    198
88.24    211
88.26    217
88.28    230
88.3     195
88.32    200
88.34    177
88.36    141
88.38    150
88.4     228
88.42    175
88.44    225
88.46    199
88.48    195
88.5     182
88.52    214
88.54    211
88.56    176
88.58    187
88.6     211
88.62    175
88.64    243
88.66    238
88.68    204
88.7     277
88.72    276
88.74    263
88.76    228
88.78    247
88.8     166
88.82    170
88.84    198
88.86    253
88.88    205
88.9     254
88.92    187
88.94    173
88.96    186
88.98    152
89.0     120
89.02    125
89.04    128
89.06    163
89.08    193
89.1     277
89.12    328
89.14    311
89.16    314
89.18    306
89.2     255
89.22    213
89.24    129
89.26    195
89.28    236
89.3     304
89.32    330
89.34    318
89.36    338
89.38    308
89.4     223
89.42    236
89.44    242
89.46    283
89.48    281
89.5     275
89.52    321
89.54    247
89.56    193
89.58    172
89.6     217
89.62    279
89.64    335
89.66    347
89.68    359
89.7     321
89.72    307
89.74    197
89.76    167
89.78    211
89.8     245
89.82    310
89.84    341
89.86    360
89.88    349
89.9     370
89.92    360
89.94    390
89.96    403
89.98    416
90.0     426
