?
5.0      571
5.02     571
5.04     736
5.06     638
5.08     670
5.1      728
5.12     701
5.14     762
5.16     750
5.18     742
5.2      757
5.22     745
5.24     731
5.26     739
5.28     764
5.3      791
5.32     751
5.34     798
5.36     739
5.38     742
5.4      744
5.42     760
5.44     742
5.46     747
5.48     732
5.5      747
5.52     746
5.54     716
5.56     693
5.58     704
5.6      708
5.62     696
5.64     693
5.66     726
5.68     689
5.7      734
5.72     731
5.74     716
5.76     728
5.78     726
5.8      720
5.82     740
5.84     754
5.86     779
5.88     772
5.9      783
5.92     762
5.94     745
5.96     724
5.98     705
6.0      688
6.02     699
6.04     677
6.06     676
6.08     696
6.1      648
6.12     644
6.14     646
6.16     651
6.18     702
6.2      692
6.22     701
6.24     715
6.26     717
6.28     754
6.3      702
6.32     707
6.34     673
6.36     675
6.38     694
6.4      682
6.42     656
6.44     679
6.46     648
6.48     658
6.5      640
6.52     619
6.54     582
6.56     573
6.58     587
6.6      601
6.62     586
6.64     606
6.66     601
6.68     614
6.7      614
6.72     559
6.74     599
6.76     622
6.78     674
6.8      661
6.82     657
6.84     637
6.86     639
6.88     615
6.9      564
6.92     527
6.94     602
6.96     579
6.98     620
7.0      589
7.02     610
7.04     603
7.06     656
7.08     645
7.1      640
7.12     673
7.14     704
7.16     686
7.18     710
7.2      676
7.22     654
7.24     622
7.26     627
7.28     619
7.3      625
7.32     609
7.34     652
7.36     686
7.38     690
7.4      699
7.42     664
7.44     643
7.46     617
7.48     595
7.5      589
7.52     532
7.54     566
7.56     566
7.58     557
7.6      552
7.62     576
7.64     585
7.66     583
7.68     564
7.7      621
7.72     584
7.74     570
7.76     579
7.78     571
7.8      564
7.82     580
7.84     626
7.86     653
7.88     641
7.9      649
7.92     592
7.94     573
7.96     571
7.98     578
8.0      560
8.02     578
8.04     626
8.06     649
8.08     656
8.1      612
8.12     568
8.14     592
8.16     541
8.18     565
8.2      528
8.22     538
8.24     548
8.26     578
8.28     590
8.3      579
8.32     618
8.34     667
8.36     621
8.38     712
8.4      655
8.42     667
8.44     685
8.46     695
8.48     713
8.5      686
8.52     617
8.54     575
8.56     526
8.58     599
8.6      532
8.62     559
8.64     622
8.66     654
8.68     636
8.7      610
8.72     547
8.74     525
8.76     508
8.78     530
8.8      493
8.82     553
8.84     579
8.86     586
8.88     591
8.9      611
8.92     577
8.94     545
8.96     551
8.98     569
9.0      573
9.02     604
9.04     599
9.06     643
9.08     654
9.1      588
9.12     591
9.14     583
9.16     544
9.18     571
9.2      534
9.22     493
9.24     508
9.26     542
9.28     487
9.3      486
9.32     505
9.34     518
9.36     498
9.38     555
9.4      574
9.42     570
9.44     577
9.46     586
9.48     498
9.5      503
9.52     414
9.54     405
9.56     426
9.58     461
9.6      501
9.62     521
9.64     492
9.66     541
9.68     502
9.7      506
9.72     476
9.74     455
9.76     418
9.78     416
9.8      386
9.82     416
9.84     434
9.86     439
9.88     461
9.9      504
9.92     523
9.94     503
9.96     441
9.98     415
10.0     386
10.02    413
10.04    375
10.06    337
10.08    420
10.1     462
10.12    485
10.14    488
10.16    504
10.18    505
10.2     505
10.22    464
10.24    404
10.26    400
10.28    409
10.3     403
10.32    376
10.34    397
10.36    447
10.38    419
10.4     427
10.42    461
10.44    453
10.46    438
10.48    460
10.5     453
10.52    447
10.54    455
10.56    427
10.58    417
10.6     472
10.62    466
10.64    423
10.66    380
10.68    404
10.7     358
10.72    350
10.74    373
10.76    437
10.78    451
10.8     465
10.82    507
10.84    512
10.86    490
10.88    478
10.9     467
10.92    463
10.94    555
10.96    510
10.98    443
11.0     463
11.02    488
11.04    414
11.06    381
11.08    387
11.1     428
11.12    423
11.14    492
11.16    464
11.18    508
11.2     557
11.22    543
11.24    514
11.26    534
11.28    555
11.3     592
11.32    581
11.34    592
11.36    579
11.38    548
11.4     515
11.42    452
11.44    426
11.46    413
11.48    431
11.5     538
11.52    581
11.54    591
11.56    603
11.58    576
11.6     529
11.62    561
11.64    568
11.66    569
11.68    586
11.7     666
11.72    698
11.74    723
11.76    691
11.78    618
11.8     660
11.82    739
11.84    707
11.86    692
11.88    630
11.9     639
11.92    660
11.94    665
11.96    624
11.98    650
12.0     715
12.02    730
12.04    744
12.06    727
12.08    704
12.1     649
12.12    647
12.14    662
12.16    653
12.18    681
12.2     717
12.22    732
12.24    783
12.26    821
12.28    826
12.3     772
12.32    790
12.34    785
12.36    734
12.38    724
12.4     753
12.42    696
12.44    716
12.46    735
12.48    722
12.5     704
12.52    742
12.54    713
12.56    732
12.58    749
12.6     767
12.62    811
12.64    813
12.66    842
12.68    839
12.7     800
12.72    772
12.74    653
12.76    665
12.78    674
12.8     669
12.82    713
12.84    739
12.86    830
12.88    808
12.9     821
12.92    817
12.94    795
12.96    856
12.98    880
13.0     847
13.02    787
13.04    836
13.06    814
13.08    752
13.1     831
13.12    870
13.14    857
13.16    885
13.18    873
13.2     843
13.22    817
13.24    836
13.26    842
13.28    869
13.3     941
13.32    939
13.34    952
13.36    1008
13.38    981
13.4     918
13.42    923
13.44    880
13.46    890
13.48    920
13.5     931
13.52    919
13.54    940
13.56    996
13.58    975
13.6     949
13.62    1009
13.64    1005
13.66    1023
13.68    1074
13.7     1056
13.72    1017
13.74    996
13.76    982
13.78    993
13.8     1043
13.82    1057
13.84    1004
13.86    1015
13.88    1048
13.9     1050
13.92    1048
13.94    1036
13.96    1020
13.98    1025
14.0     1011
14.02    980
14.04    959
14.06    995
14.08    1071
14.1     1121
14.12    1144
14.14    1185
14.16    1196
14.18    1147
14.2     1122
14.22    1127
14.24    1080
14.26    1075
14.28    1100
14.3     1113
14.32    1125
14.34    1136
14.36    1154
14.38    1131
14.4     1130
14.42    1145
14.44    1139
14.46    1160
14.48    1128
14.5     1163
14.52    1152
14.54    1108
14.56    1087
14.58    1067
14.6     1069
14.62    1112
14.64    1137
14.66    1147
14.68    1175
14.7     1168
14.72    1149
14.74    1101
14.76    1096
14.78    1106
14.8     1096
14.82    1167
14.84    1227
14.86    1281
14.88    1375
14.9     1360
14.92    1379
14.94    1412
14.96    1439
14.98    1382
15.0     1360
15.02    1346
15.04    1306
15.06    1292
15.08    1256
15.1     1169
15.12    1183
15.14    1216
15.16    1211
15.18    1194
15.2     1240
15.22    1241
15.24    1184
15.26    1213
15.28    1183
15.3     1165
15.32    1188
15.34    1206
15.36    1240
15.38    1235
15.4     1262
15.42    1241
15.44    1164
15.46    1154
15.48    1167
15.5     1171
15.52    1160
15.54    1211
15.56    1255
15.58    1243
15.6     1253
15.62    1274
15.64    1297
15.66    1264
15.68    1265
15.7     1242
15.72    1212
15.74    1248
15.76    1245
15.78    1258
15.8     1298
15.82    1348
15.84    1410
15.86    1447
15.88    1445
15.9     1467
15.92    1515
15.94    1576
15.96    1597
15.98    1681
16.0     1756
16.02    1826
16.04    1891
16.06    1993
16.08    2059
16.1     2156
16.12    2361
16.14    2580
16.16    2735
16.18    2891
16.2     3167
16.22    3503
16.24    3800
16.26    4285
16.28    4955
16.3     5725
16.32    6665
16.34    7785
16.36    9091
16.38    10751
16.4     12911
16.42    15671
16.44    19248
16.46    23872
16.48    29629
16.5     35998
16.52    42263
16.54    47045
16.56    49062
16.58    47716
16.6     43147
16.62    36214
16.64    28055
16.66    20064
16.68    13545
16.7     8953
16.72    6288
16.74    4783
16.76    3971
16.78    3404
16.8     2940
16.82    2630
16.84    2366
16.86    2225
16.88    2170
16.9     2071
16.92    1994
16.94    1872
16.96    1788
16.98    1715
17.0     1645
17.02    1575
17.04    1488
17.06    1490
17.08    1497
17.1     1465
17.12    1463
17.14    1390
17.16    1315
17.18    1357
17.2     1364
17.22    1288
17.24    1238
17.26    1289
17.28    1263
17.3     1174
17.32    1136
17.34    1175
17.36    1228
17.38    1158
17.4     1062
17.42    1034
17.44    1088
17.46    1183
17.48    1154
17.5     1064
17.52    1068
17.54    1140
17.56    1142
17.58    989
17.6     904
17.62    940
17.64    938
17.66    968
17.68    935
17.7     925
17.72    920
17.74    923
17.76    906
17.78    935
17.8     960
17.82    1006
17.84    1007
17.86    1025
17.88    1007
17.9     1021
17.92    987
17.94    904
17.96    860
17.98    917
18.0     918
18.02    910
18.04    868
18.06    864
18.08    863
18.1     877
18.12    893
18.14    902
18.16    937
18.18    886
18.2     851
18.22    796
18.24    775
18.26    732
18.28    721
18.3     750
18.32    774
18.34    837
18.36    876
18.38    850
18.4     846
18.42    804
18.44    816
18.46    766
18.48    774
18.5     720
18.52    658
18.54    702
18.56    771
18.58    749
18.6     658
18.62    626
18.64    682
18.66    755
18.68    755
18.7     685
18.72    736
18.74    785
18.76    821
18.78    798
18.8     718
18.82    715
18.84    726
18.86    746
18.88    678
18.9     635
18.92    685
18.94    685
18.96    743
18.98    789
19.0     753
19.02    744
19.04    732
19.06    663
19.08    620
19.1     677
19.12    689
19.14    731
19.16    767
19.18    770
19.2     728
19.22    732
19.24    740
19.26    662
19.28    633
19.3     616
19.32    638
19.34    691
19.36    666
19.38    603
19.4     587
19.42    613
19.44    673
19.46    647
19.48    603
19.5     544
19.52    583
19.54    592
19.56    527
19.58    489
19.6     526
19.62    531
19.64    561
19.66    561
19.68    620
19.7     594
19.72    570
19.74    538
19.76    527
19.78    606
19.8     628
19.82    614
19.84    605
19.86    620
19.88    619
19.9     526
19.92    436
19.94    419
19.96    442
19.98    478
20.0     451
20.02    440
20.04    509
20.06    578
20.08    580
20.1     528
20.12    491
20.14    478
20.16    488
20.18    451
20.2     415
20.22    436
20.24    504
20.26    537
20.28    538
20.3     527
20.32    495
20.34    480
20.36    475
20.38    434
20.4     436
20.42    482
20.44    457
20.46    401
20.48    420
20.5     483
20.52    487
20.54    526
20.56    490
20.58    505
20.6     544
20.62    566
20.64    504
20.66    435
20.68    477
20.7     544
20.72    596
20.74    555
20.76    490
20.78    549
20.8     642
20.82    678
20.84    614
20.86    522
20.88    513
20.9     556
20.92    623
20.94    530
20.96    476
20.98    515
21.0     562
21.02    562
21.04    526
21.06    439
21.08    474
21.1     510
21.12    541
21.14    465
21.16    397
21.18    375
21.2     353
21.22    373
21.24    413
21.26    411
21.28    484
21.3     519
21.32    517
21.34    500
21.36    494
21.38    473
21.4     494
21.42    514
21.44    481
21.46    423
21.48    414
21.5     438
21.52    451
21.54    471
21.56    447
21.58    420
21.6     402
21.62    414
21.64    414
21.66    404
21.68    395
21.7     419
21.72    462
21.74    499
21.76    501
21.78    502
21.8     463
21.82    482
21.84    503
21.86    487
21.88    435
21.9     371
21.92    319
21.94    323
21.96    371
21.98    411
22.0     397
22.02    377
22.04    418
22.06    459
22.08    487
22.1     433
22.12    357
22.14    309
22.16    366
22.18    368
22.2     410
22.22    435
22.24    477
22.26    526
22.28    559
22.3     489
22.32    388
22.34    328
22.36    351
22.38    292
22.4     306
22.42    273
22.44    257
22.46    279
22.48    319
22.5     315
22.52    307
22.54    361
22.56    419
22.58    452
22.6     470
22.62    453
22.64    438
22.66    454
22.68    512
22.7     528
22.72    498
22.74    467
22.76    428
22.78    367
22.8     288
22.82    233
22.84    196
22.86    188
22.88    247
22.9     286
22.92    258
22.94    272
22.96    273
22.98    312
23.0     352
23.02    375
23.04    384
23.06    366
23.08    410
23.1     351
23.12    262
23.14    248
23.16    245
23.18    290
23.2     350
23.22    380
23.24    411
23.26    465
23.28    508
23.3     453
23.32    380
23.34    317
23.36    303
23.38    297
23.4     381
23.42    359
23.44    361
23.46    340
23.48    350
23.5     306
23.52    267
23.54    210
23.56    271
23.58    265
23.6     350
23.62    299
23.64    303
23.66    234
23.68    270
23.7     262
23.72    316
23.74    356
23.76    447
23.78    405
23.8     414
23.82    346
23.84    314
23.86    195
23.88    202
23.9     229
23.92    279
23.94    311
23.96    249
23.98    176
24.0     179
24.02    198
24.04    193
24.06    211
24.08    247
24.1     289
24.12    278
24.14    255
24.16    245
24.18    292
24.2     333
24.22    325
24.24    310
24.26    349
24.28    327
24.3     365
24.32    333
24.34    302
24.36    347
24.38    369
24.4     367
24.42    296
24.44    292
24.46    303
24.48    304
24.5     306
24.52    273
24.54    275
24.56    323
24.58    359
24.6     363
24.62    372
24.64    399
24.66    406
24.68    391
24.7     314
24.72    324
24.74    320
24.76    295
24.78    249
24.8     205
24.82    296
24.84    312
24.86    384
24.88    402
24.9     405
24.92    414
24.94    329
24.96    236
24.98    207
25.0     168
25.02    186
25.04    154
25.06    235
25.08    239
25.1     305
25.12    305
25.14    309
25.16    300
25.18    285
25.2     225
25.22    220
25.24    213
25.26    275
25.28    215
25.3     221
25.32    236
25.34    275
25.36    321
25.38    306
25.4     306
25.42    306
25.44    336
25.46    348
25.48    304
25.5     294
25.52    304
25.54    297
25.56    375
25.58    301
25.6     273
25.62    215
25.64    252
25.66    232
25.68    251
25.7     295
25.72    344
25.74    395
25.76    380
25.78    318
25.8     317
25.82    269
25.84    279
25.86    258
25.88    267
25.9     243
25.92    245
25.94    221
25.96    179
25.98    197
26.0     170
26.02    212
26.04    308
26.06    387
26.08    379
26.1     340
26.12    329
26.14    311
26.16    292
26.18    256
26.2     149
26.22    161
26.24    169
26.26    214
26.28    221
26.3     306
26.32    331
26.34    317
26.36    263
26.38    245
26.4     219
26.42    229
26.44    237
26.46    283
26.48    302
26.5     356
26.52    369
26.54    330
26.56    280
26.58    276
26.6     262
26.62    226
26.64    215
26.66    170
26.68    167
26.7     159
26.72    183
26.74    208
26.76    236
26.78    282
26.8     346
26.82    398
26.84    465
26.86    401
26.88    399
26.9     342
26.92    305
26.94    271
26.96    200
26.98    199
27.0     224
27.02    241
27.04    253
27.06    183
27.08    258
27.1     306
27.12    375
27.14    379
27.16    362
27.18    356
27.2     334
27.22    341
27.24    303
27.26    215
27.28    173
27.3     145
27.32    156
27.34    181
27.36    223
27.38    279
27.4     354
27.42    362
27.44    290
27.46    219
27.48    136
27.5     150
27.52    146
27.54    250
27.56    279
27.58    375
27.6     439
27.62    375
27.64    291
27.66    250
27.68    191
27.7     255
27.72    220
27.74    252
27.76    204
27.78    226
27.8     226
27.82    170
27.84    142
27.86    153
27.88    173
27.9     272
27.92    276
27.94    295
27.96    233
27.98    210
28.0     210
28.02    215
28.04    252
28.06    279
28.08    299
28.1     331
28.12    264
28.14    212
28.16    127
28.18    152
28.2     207
28.22    231
28.24    285
28.26    264
28.28    195
28.3     124
28.32    98
28.34    169
28.36    215
28.38    333
28.4     401
28.42    375
28.44    371
28.46    268
28.48    169
28.5     185
28.52    194
28.54    215
28.56    205
28.58    217
28.6     218
28.62    196
28.64    272
28.66    274
28.68    331
28.7     381
28.72    266
28.74    236
28.76    187
28.78    217
28.8     285
28.82    342
28.84    406
28.86    349
28.88    332
28.9     255
28.92    244
28.94    286
28.96    291
28.98    345
29.0     435
29.02    414
29.04    393
29.06    325
29.08    343
29.1     360
29.12    416
29.14    390
29.16    299
29.18    253
29.2     258
29.22    185
29.24    218
29.26    285
29.28    328
29.3     354
29.32    338
29.34    314
29.36    284
29.38    289
29.4     295
29.42    266
29.44    237
29.46    179
29.48    101
29.5     86
29.52    127
29.54    227
29.56    318
29.58    383
29.6     426
29.62    402
29.64    324
29.66    253
29.68    225
29.7     185
29.72    198
29.74    260
29.76    222
29.78    253
29.8     256
29.82    258
29.84    252
29.86    229
29.88    209
29.9     215
29.92    319
29.94    367
29.96    349
29.98    371
30.0     335
30.02    322
30.04    247
30.06    178
30.08    184
30.1     221
30.12    277
30.14    275
30.16    272
30.18    263
30.2     220
30.22    205
30.24    214
30.26    265
30.28    327
30.3     348
30.32    333
30.34    342
30.36    353
30.38    334
30.4     277
30.42    279
30.44    333
30.46    364
30.48    352
30.5     353
30.52    281
30.54    209
30.56    206
30.58    188
30.6     211
30.62    324
30.64    337
30.66    320
30.68    255
30.7     213
30.72    156
30.74    110
30.76    180
30.78    218
30.8     287
30.82    399
30.84    304
30.86    252
30.88    224
30.9     263
30.92    356
30.94    375
30.96    432
30.98    407
31.0     350
31.02    357
31.04    271
31.06    238
31.08    206
31.1     251
31.12    253
31.14    207
31.16    189
31.18    154
31.2     156
31.22    184
31.24    214
31.26    220
31.28    171
31.3     250
31.32    231
31.34    238
31.36    230
31.38    245
31.4     321
31.42    331
31.44    393
31.46    399
31.48    349
31.5     382
31.52    298
31.54    223
31.56    172
31.58    175
31.6     187
31.62    200
31.64    252
31.66    353
31.68    414
31.7     481
31.72    484
31.74    397
31.76    329
31.78    259
31.8     138
31.82    76
31.84    83
31.86    208
31.88    311
31.9     385
31.92    455
31.94    369
31.96    326
31.98    338
32.0     315
32.02    333
32.04    403
32.06    448
32.08    475
32.1     467
32.12    483
32.14    443
32.16    462
32.18    514
32.2     527
32.22    532
32.24    504
32.26    425
32.28    387
32.3     341
32.32    331
32.34    330
32.36    388
32.38    410
32.4     452
32.42    463
32.44    411
32.46    395
32.48    361
32.5     307
32.52    296
32.54    256
32.56    316
32.58    357
32.6     366
32.62    361
32.64    339
32.66    309
32.68    256
32.7     247
32.72    231
32.74    286
32.76    406
32.78    462
32.8     508
32.82    543
32.84    572
32.86    649
32.88    672
32.9     667
32.92    602
32.94    527
32.96    405
32.98    331
33.0     344
33.02    355
33.04    465
33.06    627
33.08    701
33.1     667
33.12    608
33.14    521
33.16    475
33.18    556
33.2     669
33.22    782
33.24    931
33.26    1005
33.28    1068
33.3     1121
33.32    1260
33.34    1485
33.36    1774
33.38    2255
33.4     2896
33.42    3683
33.44    4737
33.46    5965
33.48    7377
33.5     8807
33.52    9974
33.54    10632
33.56    10625
33.58    10035
33.6     8907
33.62    7402
33.64    5850
33.66    4389
33.68    3250
33.7     2408
33.72    1836
33.74    1444
33.76    1166
33.78    1064
33.8     1046
33.82    1020
33.84    1020
33.86    961
33.88    928
33.9     832
33.92    764
33.94    692
33.96    543
33.98    569
34.0     592
34.02    620
34.04    678
34.06    702
34.08    692
34.1     645
34.12    576
34.14    473
34.16    342
34.18    330
34.2     332
34.22    319
34.24    407
34.26    479
34.28    520
34.3     593
34.32    546
34.34    544
34.36    537
34.38    507
34.4     512
34.42    499
34.44    535
34.46    570
34.48    640
34.5     667
34.52    604
34.54    605
34.56    556
34.58    490
34.6     483
34.62    434
34.64    374
34.66    439
34.68    500
34.7     543
34.72    558
34.74    593
34.76    586
34.78    522
34.8     473
34.82    444
34.84    449
34.86    598
34.88    771
34.9     939
34.92    1105
34.94    1332
34.96    1553
34.98    1900
35.0     2459
35.02    3315
35.04    4557
35.06    6171
35.08    7807
35.1     9293
35.12    10220
35.14    10538
35.16    10126
35.18    9130
35.2     7714
35.22    6132
35.24    4691
35.26    3494
35.28    2525
35.3     1878
35.32    1330
35.34    1039
35.36    891
35.38    844
35.4     937
35.42    911
35.44    894
35.46    798
35.48    676
35.5     564
35.52    505
35.54    490
35.56    562
35.58    609
35.6     724
35.62    653
35.64    673
35.66    601
35.68    548
35.7     529
35.72    556
35.74    567
35.76    604
35.78    607
35.8     598
35.82    512
35.84    548
35.86    557
35.88    578
35.9     649
35.92    684
35.94    711
35.96    690
35.98    702
36.0     673
36.02    698
36.04    691
36.06    735
36.08    749
36.1     807
36.12    860
36.14    957
36.16    1021
36.18    1157
36.2     1338
36.22    1522
36.24    1681
36.26    1944
36.28    2161
36.3     2551
36.32    3133
36.34    3977
36.36    5239
36.38    7124
36.4     9760
36.42    13078
36.44    16694
36.46    19929
36.48    22179
36.5     23012
36.52    22267
36.54    19978
36.56    16694
36.58    13031
36.6     9619
36.62    6854
36.64    4848
36.66    3491
36.68    2588
36.7     1999
36.72    1657
36.74    1450
36.76    1356
36.78    1238
36.8     1097
36.82    930
36.84    835
36.86    726
36.88    672
36.9     710
36.92    738
36.94    861
36.96    940
36.98    857
37.0     799
37.02    801
37.04    730
37.06    669
37.08    676
37.1     636
37.12    518
37.14    510
37.16    519
37.18    474
37.2     574
37.22    730
37.24    794
37.26    869
37.28    863
37.3     765
37.32    649
37.34    644
37.36    654
37.38    653
37.4     736
37.42    780
37.44    766
37.46    668
37.48    536
37.5     415
37.52    328
37.54    349
37.56    415
37.58    459
37.6     512
37.62    523
37.64    499
37.66    404
37.68    471
37.7     541
37.72    596
37.74    687
37.76    741
37.78    681
37.8     662
37.82    566
37.84    463
37.86    408
37.88    492
37.9     497
37.92    497
37.94    467
37.96    468
37.98    449
38.0     463
38.02    441
38.04    481
38.06    448
38.08    428
38.1     376
38.12    357
38.14    328
38.16    394
38.18    413
38.2     430
38.22    458
38.24    486
38.26    374
38.28    324
38.3     243
38.32    222
38.34    203
38.36    284
38.38    327
38.4     363
38.42    425
38.44    507
38.46    458
38.48    452
38.5     442
38.52    428
38.54    384
38.56    366
38.58    358
38.6     332
38.62    345
38.64    340
38.66    335
38.68    347
38.7     362
38.72    331
38.74    308
38.76    300
38.78    368
38.8     343
38.82    431
38.84    470
38.86    506
38.88    439
38.9     407
38.92    339
38.94    283
38.96    298
38.98    327
39.0     273
39.02    351
39.04    388
39.06    336
39.08    278
39.1     315
39.12    299
39.14    326
39.16    435
39.18    479
39.2     446
39.22    440
39.24    449
39.26    384
39.28    337
39.3     377
39.32    337
39.34    388
39.36    477
39.38    499
39.4     521
39.42    578
39.44    590
39.46    552
39.48    464
39.5     436
39.52    397
39.54    384
39.56    374
39.58    396
39.6     429
39.62    491
39.64    527
39.66    542
39.68    557
39.7     573
39.72    565
39.74    508
39.76    439
39.78    401
39.8     404
39.82    430
39.84    517
39.86    561
39.88    611
39.9     580
39.92    544
39.94    533
39.96    515
39.98    483
40.0     550
40.02    566
40.04    603
40.06    664
40.08    648
40.1     607
40.12    617
40.14    701
40.16    729
40.18    775
40.2     835
40.22    834
40.24    807
40.26    848
40.28    747
40.3     696
40.32    665
40.34    739
40.36    770
40.38    859
40.4     852
40.42    839
40.44    791
40.46    772
40.48    710
40.5     695
40.52    759
40.54    846
40.56    864
40.58    936
40.6     923
40.62    897
40.64    865
40.66    841
40.68    826
40.7     840
40.72    918
40.74    906
40.76    932
40.78    986
40.8     945
40.82    928
40.84    991
40.86    1009
40.88    1023
40.9     1039
40.92    1117
40.94    1154
40.96    1229
40.98    1282
41.0     1328
41.02    1429
41.04    1485
41.06    1594
41.08    1706
41.1     1807
41.12    1899
41.14    2032
41.16    2197
41.18    2395
41.2     2669
41.22    3038
41.24    3431
41.26    4013
41.28    4678
41.3     5477
41.32    6434
41.34    7695
41.36    9412
41.38    11688
41.4     14916
41.42    19403
41.44    25636
41.46    34056
41.48    44487
41.5     55968
41.52    66724
41.54    74571
41.56    78067
41.58    76360
41.6     69933
41.62    59876
41.64    48074
41.66    36616
41.68    26928
41.7     19675
41.72    14626
41.74    11101
41.76    8685
41.78    7013
41.8     5987
41.82    5155
41.84    4463
41.86    3922
41.88    3514
41.9     3114
41.92    2830
41.94    2599
41.96    2337
41.98    2149
42.0     1969
42.02    1748
42.04    1576
42.06    1533
42.08    1548
42.1     1512
42.12    1592
42.14    1636
42.16    1571
42.18    1508
42.2     1384
42.22    1271
42.24    1174
42.26    1136
42.28    1071
42.3     1016
42.32    1000
42.34    1031
42.36    1040
42.38    1016
42.4     1008
42.42    1005
42.44    1013
42.46    1001
42.48    960
42.5     922
42.52    883
42.54    898
42.56    917
42.58    883
42.6     870
42.62    825
42.64    860
42.66    868
42.68    788
42.7     790
42.72    828
42.74    810
42.76    801
42.78    786
42.8     733
42.82    639
42.84    651
42.86    614
42.88    588
42.9     673
42.92    748
42.94    723
42.96    682
42.98    716
43.0     721
43.02    721
43.04    708
43.06    680
43.08    683
43.1     685
43.12    645
43.14    590
43.16    620
43.18    665
43.2     728
43.22    783
43.24    779
43.26    743
43.28    687
43.3     661
43.32    591
43.34    593
43.36    651
43.38    637
43.4     676
43.42    727
43.44    767
43.46    697
43.48    647
43.5     677
43.52    631
43.54    583
43.56    560
43.58    588
43.6     612
43.62    627
43.64    619
43.66    633
43.68    685
43.7     697
43.72    656
43.74    583
43.76    563
43.78    535
43.8     519
43.82    507
43.84    474
43.86    529
43.88    560
43.9     554
43.92    538
43.94    564
43.96    601
43.98    641
44.0     677
44.02    669
44.04    607
44.06    502
44.08    468
44.1     386
44.12    379
44.14    422
44.16    474
44.18    584
44.2     659
44.22    758
44.24    736
44.26    684
44.28    681
44.3     627
44.32    572
44.34    505
44.36    434
44.38    459
44.4     533
44.42    599
44.44    589
44.46    660
44.48    713
44.5     744
44.52    678
44.54    656
44.56    623
44.58    597
44.6     593
44.62    550
44.64    547
44.66    580
44.68    613
44.7     636
44.72    619
44.74    663
44.76    698
44.78    621
44.8     634
44.82    590
44.84    620
44.86    643
44.88    671
44.9     798
44.92    878
44.94    1069
44.96    1235
44.98    1428
45.0     1668
45.02    1763
45.04    1814
45.06    1809
45.08    1729
45.1     1634
45.12    1411
45.14    1236
45.16    1113
45.18    1009
45.2     889
45.22    771
45.24    687
45.26    649
45.28    644
45.3     659
45.32    648
45.34    673
45.36    706
45.38    654
45.4     601
45.42    558
45.44    535
45.46    496
45.48    529
45.5     554
45.52    539
45.54    580
45.56    530
45.58    573
45.6     600
45.62    593
45.64    614
45.66    608
45.68    670
45.7     668
45.72    584
45.74    563
45.76    474
45.78    474
45.8     418
45.82    371
45.84    407
45.86    461
45.88    502
45.9     534
45.92    577
45.94    610
45.96    610
45.98    612
46.0     565
46.02    491
46.04    445
46.06    399
46.08    352
46.1     421
46.12    475
46.14    545
46.16    645
46.18    672
46.2     627
46.22    551
46.24    492
46.26    388
46.28    339
46.3     315
46.32    312
46.34    356
46.36    408
46.38    434
46.4     518
46.42    565
46.44    537
46.46    498
46.48    464
46.5     416
46.52    371
46.54    340
46.56    412
46.58    478
46.6     562
46.62    619
46.64    644
46.66    719
46.68    706
46.7     629
46.72    519
46.74    460
46.76    393
46.78    352
46.8     283
46.82    285
46.84    353
46.86    430
46.88    446
46.9     490
46.92    557
46.94    584
46.96    546
46.98    547
47.0     504
47.02    457
47.04    442
47.06    434
47.08    417
47.1     400
47.12    417
47.14    377
47.16    424
47.18    440
47.2     460
47.22    478
47.24    510
47.26    580
47.28    540
47.3     484
47.32    463
47.34    399
47.36    452
47.38    405
47.4     452
47.42    490
47.44    551
47.46    628
47.48    584
47.5     599
47.52    570
47.54    560
47.56    537
47.58    476
47.6     525
47.62    547
47.64    611
47.66    644
47.68    605
47.7     566
47.72    533
47.74    450
47.76    397
47.78    343
47.8     406
47.82    453
47.84    495
47.86    571
47.88    608
47.9     599
47.92    600
47.94    539
47.96    541
47.98    465
48.0     455
48.02    431
48.04    407
48.06    503
48.08    537
48.1     586
48.12    595
48.14    598
48.16    599
48.18    525
48.2     457
48.22    320
48.24    302
48.26    311
48.28    333
48.3     348
48.32    331
48.34    436
48.36    519
48.38    560
48.4     567
48.42    556
48.44    584
48.46    524
48.48    505
48.5     479
48.52    422
48.54    439
48.56    423
48.58    429
48.6     431
48.62    414
48.64    403
48.66    426
48.68    472
48.7     504
48.72    452
48.74    432
48.76    414
48.78    367
48.8     330
48.82    261
48.84    328
48.86    410
48.88    453
48.9     545
48.92    620
48.94    635
48.96    608
48.98    545
49.0     482
49.02    365
49.04    307
49.06    321
49.08    341
49.1     431
49.12    478
49.14    490
49.16    556
49.18    586
49.2     566
49.22    554
49.24    545
49.26    551
49.28    518
49.3     484
49.32    477
49.34    479
49.36    536
49.38    521
49.4     507
49.42    543
49.44    502
49.46    433
49.48    416
49.5     374
49.52    379
49.54    430
49.56    441
49.58    403
49.6     466
49.62    487
49.64    524
49.66    523
49.68    566
49.7     578
49.72    603
49.74    550
49.76    423
49.78    346
49.8     380
49.82    358
49.84    452
49.86    437
49.88    586
49.9     693
49.92    676
49.94    596
49.96    463
49.98    368
50.0     319
50.02    229
50.04    280
50.06    300
50.08    391
50.1     530
50.12    607
50.14    574
50.16    506
50.18    472
50.2     491
50.22    431
50.24    426
50.26    429
50.28    442
50.3     543
50.32    511
50.34    410
50.36    357
50.38    350
50.4     336
50.42    286
50.44    344
50.46    437
50.48    506
50.5     579
50.52    597
50.54    640
50.56    675
50.58    615
50.6     490
50.62    425
50.64    383
50.66    316
50.68    280
50.7     297
50.72    335
50.74    402
50.76    460
50.78    502
50.8     544
50.82    587
50.84    553
50.86    547
50.88    527
50.9     481
50.92    417
50.94    362
50.96    368
50.98    425
51.0     422
51.02    472
51.04    446
51.06    435
51.08    421
51.1     376
51.12    355
51.14    413
51.16    457
51.18    491
51.2     570
51.22    642
51.24    638
51.26    639
51.28    591
51.3     546
51.32    538
51.34    544
51.36    561
51.38    529
51.4     531
51.42    506
51.44    480
51.46    461
51.48    429
51.5     385
51.52    421
51.54    472
51.56    558
51.58    580
51.6     569
51.62    553
51.64    585
51.66    538
51.68    566
51.7     598
51.72    631
51.74    623
51.76    624
51.78    596
51.8     524
51.82    464
51.84    401
51.86    343
51.88    408
51.9     445
51.92    436
51.94    482
51.96    507
51.98    531
52.0     523
52.02    518
52.04    482
52.06    459
52.08    488
52.1     492
52.12    559
52.14    610
52.16    644
52.18    714
52.2     748
52.22    724
52.24    696
52.26    623
52.28    641
52.3     583
52.32    500
52.34    491
52.36    513
52.38    545
52.4     573
52.42    504
52.44    550
52.46    599
52.48    674
52.5     671
52.52    610
52.54    644
52.56    627
52.58    578
52.6     492
52.62    392
52.64    323
52.66    340
52.68    381
52.7     416
52.72    432
52.74    493
52.76    652
52.78    773
52.8     836
52.82    821
52.84    750
52.86    739
52.88    687
52.9     603
52.92    476
52.94    386
52.96    474
52.98    563
53.0     662
53.02    687
53.04    772
53.06    825
53.08    878
53.1     875
53.12    810
53.14    733
53.16    826
53.18    920
53.2     1073
53.22    1217
53.24    1436
53.26    1649
53.28    1918
53.3     2162
53.32    2478
53.34    2878
53.36    3524
53.38    4233
53.4     5032
53.42    5833
53.44    6546
53.46    7002
53.48    7072
53.5     6762
53.52    6176
53.54    5385
53.56    4581
53.58    3718
53.6     3003
53.62    2458
53.64    1975
53.66    1656
53.68    1421
53.7     1204
53.72    1057
53.74    984
53.76    973
53.78    929
53.8     959
53.82    926
53.84    850
53.86    841
53.88    791
53.9     677
53.92    617
53.94    509
53.96    502
53.98    457
54.0     493
54.02    522
54.04    588
54.06    593
54.08    623
54.1     649
54.12    709
54.14    681
54.16    703
54.18    656
54.2     663
54.22    650
54.24    625
54.26    551
54.28    575
54.3     572
54.32    545
54.34    481
54.36    404
54.38    363
54.4     356
54.42    389
54.44    436
54.46    525
54.48    639
54.5     737
54.52    743
54.54    679
54.56    548
54.58    433
54.6     337
54.62    268
54.64    215
54.66    193
54.68    238
54.7     355
54.72    455
54.74    495
54.76    555
54.78    602
54.8     624
54.82    622
54.84    561
54.86    432
54.88    412
54.9     360
54.92    408
54.94    395
54.96    385
54.98    398
55.0     465
55.02    510
55.04    522
55.06    482
55.08    492
55.1     484
55.12    542
55.14    459
55.16    361
55.18    349
55.2     389
55.22    424
55.24    470
55.26    495
55.28    563
55.3     658
55.32    723
55.34    696
55.36    658
55.38    646
55.4     617
55.42    564
55.44    511
55.46    440
55.48    400
55.5     418
55.52    413
55.54    435
55.56    500
55.58    573
55.6     593
55.62    646
55.64    664
55.66    646
55.68    614
55.7     613
55.72    582
55.74    548
55.76    522
55.78    478
55.8     429
55.82    412
55.84    444
55.86    427
55.88    430
55.9     467
55.92    527
55.94    557
55.96    562
55.98    557
56.0     523
56.02    479
56.04    516
56.06    436
56.08    431
56.1     429
56.12    487
56.14    535
56.16    550
56.18    616
56.2     542
56.22    529
56.24    523
56.26    483
56.28    492
56.3     422
56.32    435
56.34    408
56.36    487
56.38    581
56.4     544
56.42    631
56.44    618
56.46    621
56.48    638
56.5     585
56.52    551
56.54    500
56.56    551
56.58    543
56.6     558
56.62    611
56.64    568
56.66    580
56.68    599
56.7     574
56.72    533
56.74    530
56.76    485
56.78    427
56.8     411
56.82    424
56.84    428
56.86    469
56.88    514
56.9     564
56.92    652
56.94    699
56.96    673
56.98    635
57.0     571
57.02    569
57.04    581
57.06    582
57.08    543
57.1     604
57.12    640
57.14    618
57.16    632
57.18    609
57.2     563
57.22    567
57.24    611
57.26    565
57.28    537
57.3     645
57.32    652
57.34    677
57.36    698
57.38    703
57.4     655
57.42    698
57.44    713
57.46    665
57.48    683
57.5     699
57.52    641
57.54    548
57.56    513
57.58    540
57.6     493
57.62    578
57.64    630
57.66    751
57.68    855
57.7     935
57.72    988
57.74    996
57.76    1092
57.78    1089
57.8     979
57.82    997
57.84    1048
57.86    1084
57.88    1147
57.9     1288
57.92    1438
57.94    1600
57.96    1796
57.98    1954
58.0     2107
58.02    2443
58.04    2693
58.06    2997
58.08    3489
58.1     4115
58.12    4890
58.14    5881
58.16    7182
58.18    8726
58.2     10528
58.22    12359
58.24    13874
58.26    15007
58.28    15495
58.3     15190
58.32    14243
58.34    12784
58.36    10956
58.38    9155
58.4     7629
58.42    6308
58.44    5256
58.46    4423
58.48    3757
58.5     3175
58.52    2808
58.54    2470
58.56    2115
58.58    1923
58.6     1775
58.62    1657
58.64    1487
58.66    1400
58.68    1273
58.7     1159
58.72    1127
58.74    1066
58.76    988
58.78    929
58.8     897
58.82    866
58.84    823
58.86    856
58.88    872
58.9     850
58.92    846
58.94    799
58.96    716
58.98    660
59.0     657
59.02    625
59.04    586
59.06    629
59.08    688
59.1     687
59.12    735
59.14    758
59.16    713
59.18    704
59.2     729
59.22    651
59.24    555
59.26    548
59.28    582
59.3     550
59.32    565
59.34    583
59.36    536
59.38    621
59.4     645
59.42    585
59.44    572
59.46    597
59.48    633
59.5     597
59.52    594
59.54    596
59.56    547
59.58    568
59.6     539
59.62    509
59.64    555
59.66    592
59.68    612
59.7     602
59.72    615
59.74    621
59.76    606
59.78    607
59.8     650
59.82    627
59.84    657
59.86    611
59.88    531
59.9     524
59.92    529
59.94    521
59.96    575
59.98    569
60.0     577
60.02    541
60.04    516
60.06    482
60.08    505
60.1     563
60.12    568
60.14    551
60.16    625
60.18    555
60.2     494
60.22    428
60.24    414
60.26    428
60.28    431
60.3     401
60.32    369
60.34    378
60.36    453
60.38    392
60.4     366
60.42    430
60.44    475
60.46    524
60.48    588
60.5     573
60.52    560
60.54    576
60.56    545
60.58    456
60.6     407
60.62    469
60.64    448
60.66    509
60.68    548
60.7     608
60.72    615
60.74    659
60.76    611
60.78    574
60.8     538
60.82    573
60.84    532
60.86    486
60.88    468
60.9     507
60.92    479
60.94    493
60.96    463
60.98    510
61.0     511
61.02    562
61.04    571
61.06    568
61.08    581
61.1     585
61.12    589
61.14    602
61.16    629
61.18    604
61.2     612
61.22    621
61.24    624
61.26    603
61.28    567
61.3     525
61.32    549
61.34    554
61.36    577
61.38    585
61.4     631
61.42    649
61.44    667
61.46    695
61.48    680
61.5     701
61.52    675
61.54    606
61.56    659
61.58    668
61.6     668
61.62    696
61.64    706
61.66    723
61.68    726
61.7     840
61.72    865
61.74    889
61.76    1019
61.78    1057
61.8     1145
61.82    1269
61.84    1378
61.86    1460
61.88    1569
61.9     1800
61.92    1979
61.94    2206
61.96    2607
61.98    3083
62.0     3741
62.02    4660
62.04    5881
62.06    7376
62.08    9125
62.1     11073
62.12    12903
62.14    14390
62.16    15338
62.18    15565
62.2     15094
62.22    14038
62.24    12630
62.26    11078
62.28    9572
62.3     8195
62.32    7004
62.34    5925
62.36    5047
62.38    4289
62.4     3628
62.42    3023
62.44    2467
62.46    2048
62.48    1733
62.5     1419
62.52    1206
62.54    1075
62.56    1030
62.58    965
62.6     958
62.62    935
62.64    854
62.66    932
62.68    1050
62.7     1034
62.72    1004
62.74    997
62.76    932
62.78    838
62.8     812
62.82    761
62.84    694
62.86    693
62.88    674
62.9     612
62.92    594
62.94    612
62.96    639
62.98    652
63.0     670
63.02    703
63.04    673
63.06    622
63.08    593
63.1     561
63.12    536
63.14    554
63.16    513
63.18    468
63.2     435
63.22    445
63.24    418
63.26    403
63.28    391
63.3     390
63.32    422
63.34    531
63.36    573
63.38    627
63.4     681
63.42    738
63.44    770
63.46    761
63.48    719
63.5     639
63.52    582
63.54    564
63.56    534
63.58    491
63.6     459
63.62    455
63.64    463
63.66    446
63.68    442
63.7     458
63.72    528
63.74    569
63.76    643
63.78    622
63.8     635
63.82    621
63.84    566
63.86    504
63.88    454
63.9     434
63.92    421
63.94    414
63.96    504
63.98    443
64.0     513
64.02    537
64.04    558
64.06    542
64.08    526
64.1     527
64.12    528
64.14    531
64.16    596
64.18    566
64.2     614
64.22    630
64.24    686
64.26    667
64.28    673
64.3     674
64.32    690
64.34    604
64.36    606
64.38    595
64.4     573
64.42    528
64.44    537
64.46    496
64.48    535
64.5     591
64.52    764
64.54    814
64.56    938
64.58    1017
64.6     1082
64.62    1174
64.64    1276
64.66    1327
64.68    1485
64.7     1612
64.72    1959
64.74    2300
64.76    2739
64.78    3201
64.8     3671
64.82    4092
64.84    4320
64.86    4341
64.88    4264
64.9     3994
64.92    3688
64.94    3264
64.96    2844
64.98    2420
65.0     2091
65.02    1835
65.04    1598
65.06    1410
65.08    1300
65.1     1215
65.12    1136
65.14    991
65.16    914
65.18    784
65.2     732
65.22    731
65.24    766
65.26    706
65.28    735
65.3     780
65.32    770
65.34    662
65.36    692
65.38    591
65.4     573
65.42    564
65.44    627
65.46    530
65.48    575
65.5     582
65.52    550
65.54    469
65.56    513
65.58    463
65.6     476
65.62    461
65.64    434
65.66    354
65.68    395
65.7     423
65.72    450
65.74    468
65.76    557
65.78    542
65.8     532
65.82    521
65.84    486
65.86    483
65.88    527
65.9     515
65.92    567
65.94    617
65.96    682
65.98    616
66.0     622
66.02    553
66.04    525
66.06    452
66.08    425
66.1     361
66.12    374
66.14    331
66.16    341
66.18    293
66.2     353
66.22    373
66.24    429
66.26    415
66.28    479
66.3     472
66.32    492
66.34    484
66.36    470
66.38    422
66.4     437
66.42    540
66.44    562
66.46    531
66.48    497
66.5     412
66.52    380
66.54    283
66.56    213
66.58    185
66.6     192
66.62    279
66.64    323
66.66    382
66.68    420
66.7     545
66.72    596
66.74    600
66.76    599
66.78    543
66.8     522
66.82    508
66.84    453
66.86    449
66.88    471
66.9     511
66.92    474
66.94    431
66.96    397
66.98    391
67.0     422
67.02    383
67.04    356
67.06    422
67.08    468
67.1     452
67.12    445
67.14    399
67.16    462
67.18    500
67.2     538
67.22    509
67.24    559
67.26    644
67.28    650
67.3     642
67.32    621
67.34    546
67.36    485
67.38    386
67.4     327
67.42    258
67.44    226
67.46    252
67.48    263
67.5     331
67.52    421
67.54    470
67.56    569
67.58    608
67.6     625
67.62    659
67.64    657
67.66    633
67.68    596
67.7     540
67.72    478
67.74    415
67.76    454
67.78    399
67.8     405
67.82    423
67.84    448
67.86    462
67.88    518
67.9     481
67.92    486
67.94    520
67.96    558
67.98    578
68.0     609
68.02    618
68.04    588
68.06    585
68.08    557
68.1     505
68.12    496
68.14    478
68.16    491
68.18    513
68.2     521
68.22    538
68.24    524
68.26    542
68.28    575
68.3     686
68.32    712
68.34    675
68.36    685
68.38    655
68.4     620
68.42    608
68.44    563
68.46    539
68.48    488
68.5     497
68.52    459
68.54    479
68.56    563
68.58    679
68.6     743
68.62    845
68.64    962
68.66    1056
68.68    1056
68.7     1099
68.72    1126
68.74    1206
68.76    1270
68.78    1378
68.8     1494
68.82    1711
68.84    1972
68.86    2258
68.88    2584
68.9     2924
68.92    3226
68.94    3486
68.96    3693
68.98    3801
69.0     3796
69.02    3706
69.04    3416
69.06    3100
69.08    2762
69.1     2403
69.12    2056
69.14    1728
69.16    1491
69.18    1288
69.2     1083
69.22    976
69.24    907
69.26    840
69.28    792
69.3     702
69.32    694
69.34    683
69.36    705
69.38    705
69.4     733
69.42    747
69.44    753
69.46    713
69.48    667
69.5     586
69.52    572
69.54    540
69.56    528
69.58    445
69.6     459
69.62    416
69.64    413
69.66    450
69.68    447
69.7     454
69.72    484
69.74    575
69.76    586
69.78    596
69.8     658
69.82    644
69.84    607
69.86    512
69.88    454
69.9     398
69.92    389
69.94    362
69.96    365
69.98    478
70.0     512
70.02    553
70.04    595
70.06    709
70.08    801
70.1     797
70.12    763
70.14    691
70.16    655
70.18    562
70.2     515
70.22    478
70.24    490
70.26    545
70.28    556
70.3     661
70.32    722
70.34    812
70.36    920
70.38    1021
70.4     1141
70.42    1257
70.44    1333
70.46    1419
70.48    1588
70.5     1722
70.52    1813
70.54    1919
70.56    2012
70.58    2022
70.6     1988
70.62    1920
70.64    1794
70.66    1633
70.68    1483
70.7     1272
70.72    1133
70.74    1066
70.76    918
70.78    852
70.8     791
70.82    713
70.84    686
70.86    635
70.88    662
70.9     660
70.92    663
70.94    657
70.96    623
70.98    675
71.0     615
71.02    591
71.04    597
71.06    687
71.08    684
71.1     669
71.12    642
71.14    620
71.16    617
71.18    538
71.2     423
71.22    360
71.24    334
71.26    337
71.28    290
71.3     302
71.32    312
71.34    337
71.36    381
71.38    391
71.4     458
71.42    475
71.44    507
71.46    557
71.48    617
71.5     609
71.52    591
71.54    538
71.56    563
71.58    571
71.6     629
71.62    639
71.64    586
71.66    535
71.68    510
71.7     470
71.72    448
71.74    436
71.76    506
71.78    560
71.8     603
71.82    605
71.84    559
71.86    513
71.88    533
71.9     535
71.92    548
71.94    554
71.96    584
71.98    598
72.0     653
72.02    682
72.04    713
72.06    699
72.08    745
72.1     758
72.12    745
72.14    674
72.16    696
72.18    751
72.2     782
72.22    776
72.24    770
72.26    804
72.28    979
72.3     1111
72.32    1219
72.34    1411
72.36    1665
72.38    1892
72.4     2150
72.42    2454
72.44    2800
72.46    3232
72.48    3698
72.5     4054
72.52    4382
72.54    4643
72.56    4737
72.58    4670
72.6     4519
72.62    4227
72.64    3864
72.66    3460
72.68    3020
72.7     2617
72.72    2306
72.74    1993
72.76    1788
72.78    1644
72.8     1463
72.82    1349
72.84    1259
72.86    1166
72.88    1061
72.9     1004
72.92    944
72.94    892
72.96    825
72.98    788
73.0     693
73.02    663
73.04    593
73.06    552
73.08    505
73.1     506
73.12    500
73.14    532
73.16    457
73.18    484
73.2     515
73.22    544
73.24    580
73.26    693
73.28    731
73.3     788
73.32    800
73.34    816
73.36    755
73.38    850
73.4     905
73.42    969
73.44    1086
73.46    1151
73.48    1129
73.5     1108
73.52    1071
73.54    1028
73.56    967
73.58    998
73.6     918
73.62    903
73.64    914
73.66    879
73.68    867
73.7     821
73.72    794
73.74    804
73.76    785
73.78    798
73.8     733
73.82    742
73.84    699
73.86    657
73.88    616
73.9     564
73.92    615
73.94    624
73.96    598
73.98    651
74.0     658
74.02    708
74.04    762
74.06    890
74.08    943
74.1     1054
74.12    1164
74.14    1143
74.16    1174
74.18    1286
74.2     1405
74.22    1574
74.24    1793
74.26    2003
74.28    2059
74.3     2163
74.32    2176
74.34    2131
74.36    2090
74.38    2008
74.4     1916
74.42    1833
74.44    1717
74.46    1632
74.48    1535
74.5     1474
74.52    1349
74.54    1290
74.56    1258
74.58    1197
74.6     1145
74.62    1130
74.64    1078
74.66    1141
74.68    1197
74.7     1238
74.72    1368
74.74    1542
74.76    1724
74.78    1854
74.8     2037
74.82    2184
74.84    2232
74.86    2271
74.88    2216
74.9     2156
74.92    2060
74.94    1851
74.96    1659
74.98    1493
75.0     1371
75.02    1238
75.04    1123
75.06    1036
75.08    960
75.1     950
75.12    859
75.14    744
75.16    675
75.18    612
75.2     538
75.22    558
75.24    596
75.26    588
75.28    621
75.3     690
75.32    682
75.34    611
75.36    588
75.38    563
75.4     609
75.42    662
75.44    648
75.46    582
75.48    531
75.5     471
75.52    424
75.54    409
75.56    473
75.58    494
75.6     518
75.62    437
75.64    374
75.66    365
75.68    295
75.7     249
75.72    317
75.74    430
75.76    537
75.78    544
75.8     560
75.82    482
75.84    572
75.86    607
75.88    577
75.9     500
75.92    517
75.94    532
75.96    463
75.98    411
76.0     412
76.02    369
76.04    415
76.06    386
76.08    427
76.1     414
76.12    469
76.14    505
76.16    485
76.18    542
76.2     593
76.22    573
76.24    534
76.26    509
76.28    514
76.3     490
76.32    455
76.34    391
76.36    412
76.38    456
76.4     479
76.42    400
76.44    439
76.46    439
76.48    440
76.5     428
76.52    408
76.54    364
76.56    425
76.58    417
76.6     398
76.62    378
76.64    486
76.66    494
76.68    519
76.7     542
76.72    552
76.74    571
76.76    591
76.78    555
76.8     520
76.82    554
76.84    577
76.86    519
76.88    474
76.9     474
76.92    493
76.94    538
76.96    562
76.98    561
77.0     556
77.02    620
77.04    625
77.06    584
77.08    564
77.1     593
77.12    626
77.14    622
77.16    618
77.18    626
77.2     628
77.22    701
77.24    760
77.26    852
77.28    961
77.3     1093
77.32    1241
77.34    1345
77.36    1432
77.38    1611
77.4     1779
77.42    2073
77.44    2402
77.46    2741
77.48    3122
77.5     3508
77.52    3866
77.54    4235
77.56    4576
77.58    4900
77.6     5048
77.62    5077
77.64    4979
77.66    4685
77.68    4404
77.7     3990
77.72    3627
77.74    3358
77.76    3091
77.78    2787
77.8     2411
77.82    2090
77.84    1800
77.86    1570
77.88    1449
77.9     1243
77.92    1153
77.94    1077
77.96    967
77.98    794
78.0     708
78.02    649
78.04    625
78.06    636
78.08    656
78.1     585
78.12    597
78.14    614
78.16    587
78.18    553
78.2     607
78.22    600
78.24    581
78.26    551
78.28    492
78.3     433
78.32    443
78.34    444
78.36    452
78.38    467
78.4     537
78.42    556
78.44    562
78.46    589
78.48    532
78.5     511
78.52    524
78.54    507
78.56    536
78.58    495
78.6     443
78.62    354
78.64    303
78.66    241
78.68    180
78.7     227
78.72    315
78.74    376
78.76    459
78.78    439
78.8     426
78.82    419
78.84    474
78.86    483
78.88    494
78.9     522
78.92    482
78.94    458
78.96    412
78.98    375
79.0     362
79.02    455
79.04    533
79.06    553
79.08    496
79.1     450
79.12    400
79.14    395
79.16    361
79.18    341
79.2     315
79.22    354
79.24    288
79.26    261
79.28    252
79.3     306
79.32    371
79.34    426
79.36    482
79.38    493
79.4     541
79.42    528
79.44    500
79.46    529
79.48    582
79.5     641
79.52    630
79.54    629
79.56    661
79.58    578
79.6     512
79.62    425
79.64    361
79.66    327
79.68    251
79.7     260
79.72    197
79.74    218
79.76    295
79.78    268
79.8     294
79.82    454
79.84    549
79.86    590
79.88    571
79.9     601
79.92    617
79.94    594
79.96    677
79.98    670
80.0     696
80.02    794
80.04    775
80.06    650
80.08    609
80.1     572
80.12    586
80.14    489
80.16    480
80.18    455
80.2     450
80.22    445
80.24    389
80.26    376
80.28    418
80.3     455
80.32    448
80.34    417
80.36    337
80.38    330
80.4     329
80.42    317
80.44    306
80.46    371
80.48    400
80.5     440
80.52    456
80.54    460
80.56    368
80.58    338
80.6     317
80.62    322
80.64    339
80.66    342
80.68    356
80.7     355
80.72    366
80.74    413
80.76    365
80.78    373
80.8     387
80.82    451
80.84    466
80.86    444
80.88    434
80.9     420
80.92    426
80.94    485
80.96    438
80.98    467
81.0     458
81.02    479
81.04    404
81.06    378
81.08    347
81.1     362
81.12    402
81.14    412
81.16    370
81.18    349
81.2     331
81.22    282
81.24    242
81.26    258
81.28    284
81.3     330
81.32    408
81.34    452
81.36    446
81.38    423
81.4     372
81.42    379
81.44    407
81.46    470
81.48    498
81.5     454
81.52    493
81.54    446
81.56    384
81.58    305
81.6     176
81.62    183
81.64    265
81.66    327
81.68    322
81.7     292
81.72    346
81.74    282
81.76    238
81.78    197
81.8     124
81.82    178
81.84    292
81.86    337
81.88    360
81.9     396
81.92    448
81.94    437
81.96    408
81.98    408
82.0     441
82.02    501
82.04    514
82.06    490
82.08    443
82.1     429
82.12    442
82.14    400
82.16    348
82.18    369
82.2     396
82.22    401
82.24    316
82.26    247
82.28    230
82.3     272
82.32    316
82.34    292
82.36    298
82.38    349
82.4     392
82.42    396
82.44    362
82.46    393
82.48    398
82.5     421
82.52    393
82.54    359
82.56    333
82.58    294
82.6     383
82.62    409
82.64    366
82.66    337
82.68    307
82.7     287
82.72    229
82.74    250
82.76    283
82.78    312
82.8     416
82.82    475
82.84    473
82.86    406
82.88    413
82.9     475
82.92    438
82.94    490
82.96    500
82.98    463
83.0     435
83.02    493
83.04    486
83.06    401
83.08    358
83.1     363
83.12    344
83.14    347
83.16    260
83.18    261
83.2     287
83.22    315
83.24    303
83.26    294
83.28    227
83.3     239
83.32    271
83.34    276
83.36    251
83.38    390
83.4     477
83.42    523
83.44    522
83.46    533
83.48    526
83.5     528
83.52    448
83.54    432
83.56    373
83.58    408
83.6     410
83.62    403
83.64    368
83.66    383
83.68    417
83.7     454
83.72    409
83.74    423
83.76    396
83.78    353
83.8     317
83.82    291
83.84    280
83.86    256
83.88    238
83.9     277
83.92    293
83.94    328
83.96    338
83.98    337
84.0     340
84.02    332
84.04    395
84.06    394
84.08    487
84.1     499
84.12    551
84.14    558
84.16    516
84.18    460
84.2     397
84.22    330
84.24    356
84.26    327
84.28    328
84.3     240
84.32    223
84.34    139
84.36    128
84.38    96
84.4     135
84.42    149
84.44    196
84.46    273
84.48    279
84.5     299
84.52    325
84.54    361
84.56    455
84.58    509
84.6     556
84.62    552
84.64    562
84.66    599
84.68    594
84.7     613
84.72    617
84.74    612
84.76    604
84.78    623
84.8     560
84.82    503
84.84    461
84.86    407
84.88    457
84.9     450
84.92    436
84.94    400
84.96    411
84.98    420
85.0     395
85.02    384
85.04    378
85.06    401
85.08    383
85.1     326
85.12    331
85.14    260
85.16    312
85.18    271
85.2     305
85.22    366
85.24    408
85.26    480
85.28    472
85.3     446
85.32    456
85.34    402
85.36    434
85.38    375
85.4     440
85.42    395
85.44    322
85.46    319
85.48    307
85.5     241
85.52    251
85.54    234
85.56    282
85.58    306
85.6     365
85.62    347
85.64    323
85.66    332
85.68    358
85.7     415
85.72    460
85.74    458
85.76    482
85.78    390
85.8     390
85.82    384
85.84    296
85.86    313
85.88    347
85.9     380
85.92    430
85.94    403
85.96    376
85.98    323
86.0     342
86.02    334
86.04    361
86.06    454
86.08    471
86.1     495
86.12    549
86.14    474
86.16    454
86.18    440
86.2     388
86.22    403
86.24    498
86.26    551
86.28    642
86.3     707
86.32    717
86.34    781
86.36    884
86.38    956
86.4     1021
86.42    1128
86.44    1220
86.46    1299
86.48    1298
86.5     1238
86.52    1145
86.54    1103
86.56    1000
86.58    929
86.6     847
86.62    776
86.64    719
86.66    699
86.68    583
86.7     566
86.72    531
86.74    513
86.76    525
86.78    534
86.8     526
86.82    526
86.84    476
86.86    444
86.88    345
86.9     297
86.92    267
86.94    305
86.96    373
86.98    391
87.0     412
87.02    488
87.04    463
87.06    481
87.08    436
87.1     370
87.12    377
87.14    365
87.16    379
87.18    367
87.2     378
87.22    367
87.24    349
87.26    410
87.28    383
87.3     333
87.32    338
87.34    309
87.36    370
87.38    382
87.4     356
87.42    302
87.44    328
87.46    364
87.48    296
87.5     289
87.52    291
87.54    281
87.56    347
87.58    341
87.6     303
87.62    311
87.64    291
87.66    333
87.68    345
87.7     438
87.72    426
87.74    376
87.76    408
87.78    377
87.8     358
87.82    407
87.84    442
87.86    494
87.88    539
87.9     590
87.92    537
87.94    485
87.96    399
87.98    304
88.0     259
88.02    301
88.04    335
88.06    373
88.08    400
88.1     410
88.12    486
88.14    503
88.16    474
88.18    459
88.2     396
88.22    358
88.24    311
88.26    342
88.28    260
88.3     204
88.32    227
88.34    206
88.36    255
88.38    283
88.4     186
88.42    183
88.44    165
88.46    216
88.48    259
88.5     293
88.52    349
88.54    341
88.56    412
88.58    380
88.6     320
88.62    290
88.64    160
88.66    161
88.68    233
88.7     267
88.72    377
88.74    452
88.76    483
88.78    502
88.8     496
88.82    399
88.84    267
88.86    293
88.88    286
88.9     282
88.92    400
88.94    387
88.96    385
88.98    366
89.0     300
89.02    291
89.04    242
89.06    273
89.08    322
89.1     334
89.12    406
89.14    369
89.16    413
89.18    319
89.2     277
89.22    273
89.24    223
89.26    257
89.28    308
89.3     243
89.32    313
89.34    309
89.36    263
89.38    244
89.4     239
89.42    239
89.44    239
89.46    368
89.48    441
89.5     439
89.52    531
89.54    517
89.56    463
89.58    483
89.6     461
89.62    416
89.64    383
89.66    414
89.68    379
89.7     359
89.72    381
89.74    312
89.76    258
89.78    257
89.8     273
89.82    280
89.84    272
89.86    298
89.88    311
89.9     369
89.92    372
89.94    366
89.96    382
89.98    393
90.0     387
