?
5.0      632
5.02     632
5.04     816
5.06     760
5.08     758
5.1      761
5.12     732
5.14     741
5.16     719
5.18     690
5.2      721
5.22     742
5.24     767
5.26     763
5.28     762
5.3      760
5.32     763
5.34     776
5.36     791
5.38     787
5.4      779
5.42     759
5.44     747
5.46     700
5.48     707
5.5      661
5.52     683
5.54     695
5.56     717
5.58     715
5.6      720
5.62     721
5.64     726
5.66     697
5.68     687
5.7      667
5.72     675
5.74     675
5.76     675
5.78     695
5.8      687
5.82     709
5.84     735
5.86     697
5.88     722
5.9      754
5.92     751
5.94     768
5.96     747
5.98     733
6.0      698
6.02     720
6.04     679
6.06     653
6.08     720
6.1      701
6.12     715
6.14     779
6.16     805
6.18     835
6.2      816
6.22     811
6.24     764
6.26     775
6.28     789
6.3      723
6.32     749
6.34     719
6.36     721
6.38     713
6.4      720
6.42     737
6.44     703
6.46     727
6.48     723
6.5      691
6.52     724
6.54     644
6.56     690
6.58     681
6.6      713
6.62     732
6.64     729
6.66     788
6.68     741
6.7      744
6.72     758
6.74     734
6.76     760
6.78     733
6.8      712
6.82     747
6.84     747
6.86     755
6.88     747
6.9      731
6.92     739
6.94     718
6.96     744
6.98     678
7.0      710
7.02     688
7.04     710
7.06     711
7.08     743
7.1      722
7.12     772
7.14     733
7.16     732
7.18     658
7.2      766
7.22     693
7.24     747
7.26     672
7.28     693
7.3      697
7.32     714
7.34     669
7.36     659
7.38     671
7.4      734
7.42     718
7.44     743
7.46     752
7.48     799
7.5      768
7.52     748
7.54     689
7.56     691
7.58     736
7.6      709
7.62     756
7.64     818
7.66     852
7.68     862
7.7      805
7.72     786
7.74     745
7.76     761
7.78     766
7.8      727
7.82     765
7.84     742
7.86     709
7.88     730
7.9      721
7.92     757
7.94     785
7.96     813
7.98     835
8.0      845
8.02     855
8.04     801
8.06     791
8.08     792
8.1      807
8.12     832
8.14     842
8.16     855
8.18     836
8.2      886
8.22     847
8.24     820
8.26     781
8.28     815
8.3      841
8.32     822
8.34     770
8.36     796
8.38     747
8.4      813
8.42     764
8.44     795
8.46     783
8.48     834
8.5      865
8.52     859
8.54     871
8.56     906
8.58     904
8.6      946
8.62     914
8.64     873
8.66     848
8.68     805
8.7      827
8.72     790
8.74     799
8.76     809
8.78     883
8.8      900
8.82     875
8.84     877
8.86     910
8.88     956
8.9      1022
8.92     1018
8.94     1026
8.96     1060
8.98     1075
9.0      1080
9.02     1098
9.04     1081
9.06     1062
9.08     1003
9.1      992
9.12     932
9.14     846
9.16     819
9.18     765
9.2      805
9.22     871
9.24     849
9.26     855
9.28     787
9.3      840
9.32     788
9.34     745
9.36     712
9.38     643
9.4      653
9.42     678
9.44     656
9.46     743
9.48     717
9.5      775
9.52     758
9.54     770
9.56     721
9.58     668
9.6      714
9.62     693
9.64     699
9.66     717
9.68     712
9.7      736
9.72     699
9.74     685
9.76     643
9.78     626
9.8      671
9.82     613
9.84     583
9.86     538
9.88     622
9.9      627
9.92     614
9.94     622
9.96     625
9.98     686
10.0     667
10.02    654
10.04    620
10.06    588
10.08    658
10.1     632
10.12    643
10.14    641
10.16    647
10.18    695
10.2     630
10.22    671
10.24    622
10.26    581
10.28    614
10.3     604
10.32    608
10.34    576
10.36    563
10.38    557
10.4     586
10.42    621
10.44    590
10.46    584
10.48    588
10.5     629
10.52    604
10.54    577
10.56    558
10.58    599
10.6     672
10.62    656
10.64    650
10.66    645
10.68    654
10.7     694
10.72    628
10.74    597
10.76    557
10.78    580
10.8     580
10.82    530
10.84    561
10.86    553
10.88    560
10.9     572
10.92    565
10.94    588
10.96    560
10.98    575
11.0     610
11.02    618
11.04    615
11.06    531
11.08    558
11.1     551
11.12    518
11.14    548
11.16    507
11.18    551
11.2     551
11.22    577
11.24    525
11.26    484
11.28    544
11.3     551
11.32    497
11.34    569
11.36    517
11.38    579
11.4     557
11.42    515
11.44    519
11.46    514
11.48    527
11.5     553
11.52    547
11.54    534
11.56    536
11.58    596
11.6     572
11.62    508
11.64    543
11.66    549
11.68    532
11.7     549
11.72    558
11.74    492
11.76    492
11.78    473
11.8     431
11.82    471
11.84    477
11.86    517
11.88    564
11.9     564
11.92    618
11.94    620
11.96    623
11.98    600
12.0     586
12.02    605
12.04    579
12.06    560
12.08    532
12.1     463
12.12    509
12.14    502
12.16    571
12.18    570
12.2     557
12.22    582
12.24    700
12.26    686
12.28    580
12.3     539
12.32    562
12.34    536
12.36    524
12.38    509
12.4     513
12.42    599
12.44    716
12.46    695
12.48    642
12.5     672
12.52    674
12.54    620
12.56    590
12.58    660
12.6     663
12.62    625
12.64    590
12.66    558
12.68    552
12.7     578
12.72    527
12.74    553
12.76    607
12.78    684
12.8     691
12.82    672
12.84    708
12.86    716
12.88    691
12.9     694
12.92    634
12.94    655
12.96    653
12.98    647
13.0     685
13.02    716
13.04    704
13.06    724
13.08    688
13.1     648
13.12    650
13.14    716
13.16    712
13.18    677
13.2     757
13.22    763
13.24    752
13.26    786
13.28    752
13.3     708
13.32    742
13.34    760
13.36    714
13.38    687
13.4     741
13.42    760
13.44    762
13.46    716
13.48    718
13.5     743
13.52    702
13.54    700
13.56    746
13.58    714
13.6     700
13.62    690
13.64    670
13.66    670
13.68    719
13.7     793
13.72    783
13.74    784
13.76    846
13.78    814
13.8     751
13.82    736
13.84    783
13.86    805
13.88    821
13.9     850
13.92    863
13.94    809
13.96    839
13.98    818
14.0     799
14.02    842
14.04    867
14.06    856
14.08    815
14.1     776
14.12    747
14.14    753
14.16    672
14.18    648
14.2     754
14.22    826
14.24    815
14.26    859
14.28    862
14.3     849
14.32    804
14.34    834
14.36    776
14.38    807
14.4     903
14.42    871
14.44    788
14.46    850
14.48    901
14.5     920
14.52    895
14.54    908
14.56    906
14.58    928
14.6     934
14.62    786
14.64    734
14.66    779
14.68    802
14.7     850
14.72    831
14.74    823
14.76    862
14.78    966
14.8     999
14.82    955
14.84    1029
14.86    1046
14.88    1068
14.9     1097
14.92    1129
14.94    1171
14.96    1099
14.98    1083
15.0     1098
15.02    1048
15.04    1015
15.06    943
15.08    943
15.1     921
15.12    1034
15.14    1038
15.16    955
15.18    1003
15.2     1047
15.22    980
15.24    941
15.26    903
15.28    942
15.3     906
15.32    975
15.34    1049
15.36    1101
15.38    1098
15.4     1135
15.42    1084
15.44    993
15.46    882
15.48    957
15.5     933
15.52    924
15.54    1012
15.56    1023
15.58    1027
15.6     1142
15.62    1158
15.64    1093
15.66    1082
15.68    1175
15.7     1166
15.72    1125
15.74    1094
15.76    1063
15.78    1092
15.8     1119
15.82    1153
15.84    1215
15.86    1276
15.88    1303
15.9     1399
15.92    1437
15.94    1436
15.96    1523
15.98    1597
16.0     1636
16.02    1775
16.04    1943
16.06    2049
16.08    2150
16.1     2288
16.12    2351
16.14    2451
16.16    2598
16.18    2751
16.2     3018
16.22    3364
16.24    3818
16.26    4405
16.28    5068
16.3     5776
16.32    6708
16.34    7905
16.36    9381
16.38    11170
16.4     13547
16.42    16570
16.44    20511
16.46    25688
16.48    31988
16.5     38960
16.52    45726
16.54    50644
16.56    52209
16.58    49984
16.6     44323
16.62    36210
16.64    27139
16.66    18729
16.68    12073
16.7     7728
16.72    5430
16.74    4345
16.76    3714
16.78    3282
16.8     2840
16.82    2568
16.84    2424
16.86    2313
16.88    2153
16.9     2042
16.92    1938
16.94    1859
16.96    1771
16.98    1667
17.0     1579
17.02    1537
17.04    1512
17.06    1460
17.08    1357
17.1     1363
17.12    1383
17.14    1349
17.16    1295
17.18    1251
17.2     1240
17.22    1259
17.24    1227
17.26    1116
17.28    1064
17.3     1099
17.32    1159
17.34    1185
17.36    1168
17.38    1129
17.4     1143
17.42    1168
17.44    1143
17.46    1076
17.48    1083
17.5     1129
17.52    1147
17.54    1137
17.56    1063
17.58    1061
17.6     1076
17.62    1082
17.64    1065
17.66    1025
17.68    1087
17.7     1096
17.72    1022
17.74    914
17.76    841
17.78    916
17.8     956
17.82    936
17.84    928
17.86    950
17.88    1007
17.9     956
17.92    916
17.94    860
17.96    861
17.98    943
18.0     898
18.02    803
18.04    758
18.06    791
18.08    811
18.1     796
18.12    773
18.14    755
18.16    790
18.18    849
18.2     827
18.22    761
18.24    751
18.26    822
18.28    835
18.3     823
18.32    748
18.34    698
18.36    695
18.38    753
18.4     804
18.42    799
18.44    759
18.46    792
18.48    817
18.5     842
18.52    830
18.54    749
18.56    722
18.58    739
18.6     711
18.62    686
18.64    667
18.66    715
18.68    758
18.7     785
18.72    843
18.74    859
18.76    850
18.78    865
18.8     834
18.82    815
18.84    777
18.86    706
18.88    698
18.9     716
18.92    716
18.94    715
18.96    681
18.98    735
19.0     749
19.02    737
19.04    699
19.06    661
19.08    694
19.1     651
19.12    599
19.14    567
19.16    598
19.18    659
19.2     708
19.22    716
19.24    744
19.26    755
19.28    750
19.3     673
19.32    672
19.34    647
19.36    663
19.38    636
19.4     629
19.42    590
19.44    588
19.46    573
19.48    602
19.5     656
19.52    738
19.54    699
19.56    653
19.58    590
19.6     614
19.62    598
19.64    578
19.66    547
19.68    574
19.7     665
19.72    709
19.74    593
19.76    476
19.78    439
19.8     504
19.82    555
19.84    521
19.86    534
19.88    573
19.9     645
19.92    600
19.94    505
19.96    457
19.98    452
20.0     537
20.02    568
20.04    516
20.06    478
20.08    517
20.1     532
20.12    473
20.14    501
20.16    541
20.18    541
20.2     629
20.22    638
20.24    570
20.26    538
20.28    622
20.3     649
20.32    602
20.34    606
20.36    598
20.38    621
20.4     637
20.42    636
20.44    626
20.46    665
20.48    682
20.5     709
20.52    685
20.54    618
20.56    609
20.58    607
20.6     586
20.62    536
20.64    530
20.66    525
20.68    546
20.7     609
20.72    582
20.74    561
20.76    585
20.78    635
20.8     590
20.82    554
20.84    514
20.86    491
20.88    455
20.9     474
20.92    500
20.94    586
20.96    569
20.98    524
21.0     504
21.02    484
21.04    439
21.06    436
21.08    426
21.1     488
21.12    551
21.14    580
21.16    517
21.18    486
21.2     511
21.22    456
21.24    474
21.26    520
21.28    504
21.3     514
21.32    545
21.34    560
21.36    567
21.38    545
21.4     550
21.42    558
21.44    562
21.46    532
21.48    488
21.5     474
21.52    490
21.54    417
21.56    394
21.58    405
21.6     519
21.62    568
21.64    616
21.66    563
21.68    576
21.7     546
21.72    543
21.74    464
21.76    439
21.78    453
21.8     480
21.82    501
21.84    539
21.86    464
21.88    477
21.9     466
21.92    455
21.94    457
21.96    430
21.98    454
22.0     452
22.02    473
22.04    499
22.06    467
22.08    464
22.1     456
22.12    444
22.14    447
22.16    456
22.18    434
22.2     410
22.22    374
22.24    408
22.26    433
22.28    465
22.3     472
22.32    476
22.34    397
22.36    377
22.38    326
22.4     323
22.42    330
22.44    367
22.46    393
22.48    413
22.5     413
22.52    408
22.54    405
22.56    433
22.58    423
22.6     438
22.62    461
22.64    419
22.66    389
22.68    425
22.7     433
22.72    461
22.74    457
22.76    363
22.78    315
22.8     331
22.82    377
22.84    346
22.86    370
22.88    368
22.9     433
22.92    438
22.94    369
22.96    320
22.98    360
23.0     387
23.02    433
23.04    336
23.06    331
23.08    272
23.1     352
23.12    329
23.14    340
23.16    381
23.18    390
23.2     388
23.22    405
23.24    331
23.26    351
23.28    316
23.3     381
23.32    402
23.34    458
23.36    436
23.38    404
23.4     393
23.42    419
23.44    417
23.46    428
23.48    413
23.5     455
23.52    508
23.54    529
23.56    477
23.58    429
23.6     410
23.62    365
23.64    405
23.66    382
23.68    376
23.7     341
23.72    403
23.74    389
23.76    405
23.78    351
23.8     357
23.82    240
23.84    297
23.86    258
23.88    318
23.9     374
23.92    467
23.94    488
23.96    474
23.98    431
24.0     387
24.02    274
24.04    280
24.06    243
24.08    293
24.1     352
24.12    373
24.14    387
24.16    406
24.18    463
24.2     476
24.22    477
24.24    434
24.26    391
24.28    342
24.3     298
24.32    302
24.34    292
24.36    348
24.38    347
24.4     354
24.42    377
24.44    312
24.46    322
24.48    292
24.5     271
24.52    292
24.54    288
24.56    330
24.58    301
24.6     305
24.62    337
24.64    317
24.66    332
24.68    344
24.7     343
24.72    393
24.74    422
24.76    429
24.78    415
24.8     352
24.82    388
24.84    381
24.86    356
24.88    339
24.9     361
24.92    397
24.94    430
24.96    423
24.98    356
25.0     321
25.02    328
25.04    288
25.06    298
25.08    277
25.1     349
25.12    342
25.14    413
25.16    376
25.18    379
25.2     420
25.22    411
25.24    362
25.26    363
25.28    348
25.3     397
25.32    336
25.34    321
25.36    293
25.38    338
25.4     365
25.42    321
25.44    282
25.46    271
25.48    317
25.5     341
25.52    306
25.54    294
25.56    288
25.58    348
25.6     387
25.62    371
25.64    410
25.66    400
25.68    403
25.7     385
25.72    370
25.74    346
25.76    390
25.78    423
25.8     408
25.82    340
25.84    336
25.86    304
25.88    283
25.9     322
25.92    326
25.94    302
25.96    323
25.98    258
26.0     262
26.02    252
26.04    280
26.06    313
26.08    339
26.1     424
26.12    377
26.14    348
26.16    364
26.18    300
26.2     285
26.22    269
26.24    257
26.26    294
26.28    324
26.3     341
26.32    314
26.34    282
26.36    342
26.38    303
26.4     362
26.42    369
26.44    410
26.46    405
26.48    454
26.5     390
26.52    318
26.54    243
26.56    319
26.58    368
26.6     438
26.62    409
26.64    396
26.66    301
26.68    261
26.7     171
26.72    135
26.74    164
26.76    246
26.78    286
26.8     351
26.82    421
26.84    475
26.86    445
26.88    410
26.9     356
26.92    254
26.94    197
26.96    186
26.98    186
27.0     255
27.02    342
27.04    422
27.06    368
27.08    305
27.1     220
27.12    91
27.14    84
27.16    103
27.18    145
27.2     251
27.22    359
27.24    432
27.26    386
27.28    384
27.3     367
27.32    343
27.34    320
27.36    290
27.38    266
27.4     313
27.42    294
27.44    290
27.46    293
27.48    356
27.5     378
27.52    422
27.54    365
27.56    315
27.58    207
27.6     174
27.62    121
27.64    178
27.66    275
27.68    396
27.7     386
27.72    425
27.74    357
27.76    323
27.78    250
27.8     305
27.82    338
27.84    395
27.86    444
27.88    407
27.9     330
27.92    302
27.94    318
27.96    305
27.98    312
28.0     327
28.02    307
28.04    278
28.06    231
28.08    186
28.1     209
28.12    239
28.14    341
28.16    374
28.18    368
28.2     305
28.22    285
28.24    197
28.26    219
28.28    254
28.3     288
28.32    370
28.34    337
28.36    327
28.38    276
28.4     265
28.42    286
28.44    305
28.46    381
28.48    409
28.5     370
28.52    352
28.54    249
28.56    238
28.58    267
28.6     288
28.62    329
28.64    367
28.66    354
28.68    328
28.7     224
28.72    215
28.74    238
28.76    310
28.78    336
28.8     327
28.82    334
28.84    349
28.86    331
28.88    359
28.9     337
28.92    334
28.94    343
28.96    330
28.98    224
29.0     181
29.02    151
29.04    160
29.06    172
29.08    299
29.1     321
29.12    334
29.14    398
29.16    351
29.18    336
29.2     343
29.22    261
29.24    227
29.26    226
29.28    260
29.3     272
29.32    268
29.34    298
29.36    324
29.38    367
29.4     369
29.42    361
29.44    332
29.46    333
29.48    320
29.5     333
29.52    324
29.54    342
29.56    381
29.58    340
29.6     285
29.62    290
29.64    233
29.66    230
29.68    251
29.7     262
29.72    291
29.74    302
29.76    281
29.78    199
29.8     164
29.82    152
29.84    194
29.86    266
29.88    349
29.9     400
29.92    411
29.94    361
29.96    297
29.98    232
30.0     154
30.02    114
30.04    190
30.06    246
30.08    336
30.1     394
30.12    421
30.14    401
30.16    383
30.18    330
30.2     252
30.22    271
30.24    278
30.26    307
30.28    352
30.3     316
30.32    334
30.34    278
30.36    222
30.38    204
30.4     237
30.42    264
30.44    309
30.46    331
30.48    277
30.5     228
30.52    238
30.54    221
30.56    239
30.58    295
30.6     283
30.62    300
30.64    304
30.66    224
30.68    203
30.7     232
30.72    270
30.74    310
30.76    305
30.78    307
30.8     285
30.82    285
30.84    290
30.86    299
30.88    334
30.9     249
30.92    217
30.94    235
30.96    184
30.98    265
31.0     377
31.02    405
31.04    489
31.06    449
31.08    371
31.1     255
31.12    249
31.14    290
31.16    263
31.18    353
31.2     357
31.22    234
31.24    178
31.26    126
31.28    120
31.3     252
31.32    295
31.34    290
31.36    345
31.38    338
31.4     271
31.42    192
31.44    172
31.46    183
31.48    207
31.5     314
31.52    277
31.54    287
31.56    340
31.58    319
31.6     385
31.62    393
31.64    427
31.66    433
31.68    404
31.7     387
31.72    310
31.74    295
31.76    272
31.78    292
31.8     332
31.82    308
31.84    302
31.86    252
31.88    198
31.9     134
31.92    89
31.94    129
31.96    271
31.98    397
32.0     438
32.02    423
32.04    383
32.06    332
32.08    287
32.1     279
32.12    376
32.14    466
32.16    577
32.18    580
32.2     566
32.22    471
32.24    394
32.26    270
32.28    225
32.3     252
32.32    320
32.34    375
32.36    392
32.38    412
32.4     451
32.42    395
32.44    381
32.46    353
32.48    367
32.5     385
32.52    385
32.54    421
32.56    458
32.58    449
32.6     410
32.62    370
32.64    311
32.66    301
32.68    333
32.7     310
32.72    381
32.74    496
32.76    605
32.78    614
32.8     619
32.82    669
32.84    624
32.86    635
32.88    601
32.9     416
32.92    427
32.94    398
32.96    412
32.98    493
33.0     538
33.02    609
33.04    615
33.06    550
33.08    465
33.1     342
33.12    336
33.14    377
33.16    484
33.18    615
33.2     726
33.22    817
33.24    895
33.26    988
33.28    1172
33.3     1339
33.32    1551
33.34    1880
33.36    2151
33.38    2555
33.4     3145
33.42    3861
33.44    4933
33.46    6347
33.48    7897
33.5     9444
33.52    10670
33.54    11365
33.56    11267
33.58    10532
33.6     9188
33.62    7490
33.64    5831
33.66    4348
33.68    3151
33.7     2355
33.72    1791
33.74    1389
33.76    1145
33.78    921
33.8     776
33.82    764
33.84    768
33.86    791
33.88    759
33.9     757
33.92    705
33.94    673
33.96    609
33.98    502
34.0     472
34.02    517
34.04    508
34.06    535
34.08    499
34.1     522
34.12    490
34.14    494
34.16    438
34.18    379
34.2     403
34.22    477
34.24    578
34.26    679
34.28    647
34.3     661
34.32    611
34.34    535
34.36    452
34.38    392
34.4     419
34.42    501
34.44    593
34.46    620
34.48    581
34.5     545
34.52    466
34.54    388
34.56    342
34.58    360
34.6     434
34.62    525
34.64    567
34.66    599
34.68    590
34.7     548
34.72    480
34.74    394
34.76    392
34.78    415
34.8     461
34.82    585
34.84    664
34.86    796
34.88    925
34.9     1080
34.92    1210
34.94    1311
34.96    1558
34.98    1877
35.0     2502
35.02    3633
35.04    5130
35.06    7028
35.08    8954
35.1     10499
35.12    11417
35.14    11452
35.16    10673
35.18    9180
35.2     7376
35.22    5581
35.24    4071
35.26    2911
35.28    2062
35.3     1485
35.32    1187
35.34    988
35.36    884
35.38    860
35.4     901
35.42    914
35.44    974
35.46    909
35.48    828
35.5     731
35.52    700
35.54    609
35.56    518
35.58    529
35.6     514
35.62    484
35.64    544
35.66    568
35.68    539
35.7     532
35.72    523
35.74    462
35.76    458
35.78    549
35.8     562
35.82    625
35.84    664
35.86    682
35.88    635
35.9     648
35.92    557
35.94    470
35.96    490
35.98    511
36.0     545
36.02    593
36.04    635
36.06    665
36.08    750
36.1     805
36.12    835
36.14    848
36.16    979
36.18    1054
36.2     1205
36.22    1349
36.24    1586
36.26    1793
36.28    2138
36.3     2637
36.32    3446
36.34    4568
36.36    6244
36.38    8487
36.4     11589
36.42    15222
36.44    19041
36.46    22126
36.48    23942
36.5     24216
36.52    22856
36.54    19986
36.56    16222
36.58    12232
36.6     8728
36.62    6045
36.64    4237
36.66    2932
36.68    2140
36.7     1728
36.72    1498
36.74    1310
36.76    1219
36.78    1066
36.8     891
36.82    811
36.84    658
36.86    547
36.88    608
36.9     662
36.92    676
36.94    724
36.96    745
36.98    703
37.0     654
37.02    665
37.04    608
37.06    654
37.08    700
37.1     720
37.12    676
37.14    628
37.16    515
37.18    483
37.2     412
37.22    417
37.24    495
37.26    608
37.28    670
37.3     801
37.32    861
37.34    890
37.36    922
37.38    985
37.4     857
37.42    767
37.44    700
37.46    550
37.48    393
37.5     320
37.52    299
37.54    305
37.56    396
37.58    524
37.6     585
37.62    652
37.64    650
37.66    627
37.68    552
37.7     447
37.72    386
37.74    336
37.76    339
37.78    416
37.8     560
37.82    648
37.84    701
37.86    784
37.88    738
37.9     567
37.92    457
37.94    367
37.96    283
37.98    298
38.0     414
38.02    458
38.04    510
38.06    571
38.08    515
38.1     385
38.12    347
38.14    303
38.16    317
38.18    355
38.2     430
38.22    438
38.24    485
38.26    478
38.28    416
38.3     309
38.32    317
38.34    354
38.36    371
38.38    384
38.4     444
38.42    431
38.44    443
38.46    430
38.48    386
38.5     301
38.52    370
38.54    389
38.56    367
38.58    396
38.6     387
38.62    309
38.64    297
38.66    293
38.68    281
38.7     259
38.72    374
38.74    388
38.76    451
38.78    489
38.8     534
38.82    490
38.84    506
38.86    461
38.88    418
38.9     372
38.92    415
38.94    378
38.96    392
38.98    399
39.0     440
39.02    331
39.04    315
39.06    212
39.08    187
39.1     182
39.12    252
39.14    310
39.16    415
39.18    479
39.2     533
39.22    510
39.24    559
39.26    498
39.28    467
39.3     383
39.32    327
39.34    267
39.36    249
39.38    205
39.4     271
39.42    357
39.44    499
39.46    539
39.48    533
39.5     514
39.52    422
39.54    300
39.56    215
39.58    200
39.6     244
39.62    321
39.64    418
39.66    488
39.68    537
39.7     606
39.72    509
39.74    414
39.76    320
39.78    328
39.8     239
39.82    229
39.84    294
39.86    349
39.88    399
39.9     480
39.92    539
39.94    561
39.96    608
39.98    668
40.0     631
40.02    572
40.04    577
40.06    593
40.08    598
40.1     603
40.12    632
40.14    646
40.16    688
40.18    693
40.2     685
40.22    622
40.24    674
40.26    775
40.28    804
40.3     795
40.32    791
40.34    790
40.36    697
40.38    661
40.4     626
40.42    606
40.44    640
40.46    729
40.48    773
40.5     850
40.52    891
40.54    911
40.56    913
40.58    962
40.6     908
40.62    928
40.64    976
40.66    966
40.68    915
40.7     885
40.72    835
40.74    773
40.76    754
40.78    735
40.8     728
40.82    847
40.84    969
40.86    1020
40.88    1088
40.9     1128
40.92    1152
40.94    1130
40.96    1067
40.98    1010
41.0     1076
41.02    1166
41.04    1245
41.06    1384
41.08    1529
41.1     1716
41.12    1855
41.14    2033
41.16    2189
41.18    2436
41.2     2756
41.22    3104
41.24    3493
41.26    4068
41.28    4763
41.3     5606
41.32    6618
41.34    7994
41.36    9869
41.38    12407
41.4     15973
41.42    21128
41.44    28490
41.46    38460
41.48    50717
41.5     63900
41.52    75465
41.54    83109
41.56    85190
41.58    81275
41.6     72109
41.62    59470
41.64    45841
41.66    33418
41.68    23662
41.7     16954
41.72    12454
41.74    9483
41.76    7474
41.78    6160
41.8     5184
41.82    4535
41.84    4080
41.86    3630
41.88    3172
41.9     2784
41.92    2478
41.94    2218
41.96    2025
41.98    1878
42.0     1791
42.02    1748
42.04    1661
42.06    1526
42.08    1413
42.1     1293
42.12    1242
42.14    1238
42.16    1224
42.18    1224
42.2     1276
42.22    1227
42.24    1170
42.26    1088
42.28    1006
42.3     879
42.32    790
42.34    751
42.36    699
42.38    712
42.4     798
42.42    888
42.44    991
42.46    1039
42.48    1107
42.5     1027
42.52    956
42.54    878
42.56    766
42.58    714
42.6     709
42.62    713
42.64    706
42.66    707
42.68    783
42.7     780
42.72    873
42.74    897
42.76    861
42.78    880
42.8     872
42.82    744
42.84    632
42.86    614
42.88    611
42.9     565
42.92    594
42.94    577
42.96    579
42.98    622
43.0     625
43.02    625
43.04    688
43.06    779
43.08    768
43.1     734
43.12    708
43.14    630
43.16    565
43.18    535
43.2     537
43.22    579
43.24    631
43.26    636
43.28    630
43.3     597
43.32    512
43.34    435
43.36    407
43.38    404
43.4     405
43.42    432
43.44    531
43.46    568
43.48    603
43.5     617
43.52    564
43.54    523
43.56    501
43.58    465
43.6     469
43.62    476
43.64    539
43.66    512
43.68    504
43.7     487
43.72    400
43.74    365
43.76    355
43.78    397
43.8     462
43.82    523
43.84    591
43.86    571
43.88    582
43.9     582
43.92    523
43.94    468
43.96    467
43.98    511
44.0     533
44.02    558
44.04    591
44.06    590
44.08    650
44.1     655
44.12    583
44.14    548
44.16    502
44.18    502
44.2     502
44.22    494
44.24    503
44.26    489
44.28    543
44.3     537
44.32    502
44.34    482
44.36    400
44.38    421
44.4     449
44.42    469
44.44    463
44.46    489
44.48    586
44.5     604
44.52    578
44.54    564
44.56    524
44.58    457
44.6     418
44.62    379
44.64    383
44.66    412
44.68    438
44.7     472
44.72    514
44.74    557
44.76    497
44.78    427
44.8     439
44.82    439
44.84    519
44.86    577
44.88    692
44.9     881
44.92    1067
44.94    1261
44.96    1375
44.98    1552
45.0     1699
45.02    1746
45.04    1765
45.06    1714
45.08    1605
45.1     1453
45.12    1316
45.14    1165
45.16    978
45.18    804
45.2     692
45.22    601
45.24    539
45.26    526
45.28    510
45.3     532
45.32    559
45.34    584
45.36    618
45.38    615
45.4     616
45.42    624
45.44    601
45.46    548
45.48    487
45.5     469
45.52    463
45.54    494
45.56    510
45.58    522
45.6     480
45.62    491
45.64    448
45.66    393
45.68    344
45.7     405
45.72    460
45.74    466
45.76    461
45.78    479
45.8     457
45.82    427
45.84    427
45.86    390
45.88    369
45.9     401
45.92    432
45.94    439
45.96    401
45.98    404
46.0     382
46.02    446
46.04    488
46.06    454
46.08    499
46.1     539
46.12    622
46.14    610
46.16    512
46.18    454
46.2     358
46.22    370
46.24    296
46.26    247
46.28    362
46.3     430
46.32    543
46.34    520
46.36    516
46.38    470
46.4     380
46.42    281
46.44    228
46.46    224
46.48    344
46.5     336
46.52    444
46.54    529
46.56    573
46.58    569
46.6     483
46.62    387
46.64    339
46.66    314
46.68    293
46.7     257
46.72    338
46.74    395
46.76    406
46.78    457
46.8     460
46.82    483
46.84    477
46.86    456
46.88    388
46.9     383
46.92    329
46.94    305
46.96    332
46.98    359
47.0     375
47.02    418
47.04    429
47.06    420
47.08    407
47.1     431
47.12    444
47.14    494
47.16    487
47.18    480
47.2     488
47.22    484
47.24    428
47.26    377
47.28    370
47.3     370
47.32    397
47.34    392
47.36    363
47.38    388
47.4     449
47.42    464
47.44    439
47.46    382
47.48    416
47.5     408
47.52    413
47.54    384
47.56    353
47.58    396
47.6     422
47.62    400
47.64    377
47.66    352
47.68    426
47.7     374
47.72    416
47.74    427
47.76    387
47.78    365
47.8     326
47.82    328
47.84    324
47.86    323
47.88    353
47.9     372
47.92    479
47.94    523
47.96    483
47.98    454
48.0     473
48.02    468
48.04    435
48.06    402
48.08    394
48.1     461
48.12    440
48.14    515
48.16    475
48.18    429
48.2     387
48.22    365
48.24    399
48.26    361
48.28    377
48.3     474
48.32    510
48.34    616
48.36    580
48.38    537
48.4     472
48.42    421
48.44    410
48.46    287
48.48    240
48.5     284
48.52    309
48.54    333
48.56    365
48.58    420
48.6     494
48.62    528
48.64    554
48.66    517
48.68    551
48.7     532
48.72    500
48.74    426
48.76    399
48.78    319
48.8     348
48.82    298
48.84    261
48.86    292
48.88    357
48.9     352
48.92    359
48.94    391
48.96    453
48.98    378
49.0     364
49.02    312
49.04    274
49.06    294
49.08    300
49.1     276
49.12    345
49.14    444
49.16    466
49.18    413
49.2     380
49.22    345
49.24    309
49.26    320
49.28    264
49.3     231
49.32    232
49.34    189
49.36    204
49.38    255
49.4     297
49.42    331
49.44    378
49.46    510
49.48    600
49.5     588
49.52    533
49.54    435
49.56    440
49.58    381
49.6     295
49.62    269
49.64    253
49.66    366
49.68    357
49.7     324
49.72    366
49.74    381
49.76    415
49.78    434
49.8     419
49.82    457
49.84    477
49.86    444
49.88    341
49.9     270
49.92    268
49.94    318
49.96    302
49.98    348
50.0     424
50.02    502
50.04    567
50.06    536
50.08    473
50.1     375
50.12    357
50.14    352
50.16    282
50.18    251
50.2     294
50.22    257
50.24    314
50.26    302
50.28    336
50.3     396
50.32    489
50.34    510
50.36    555
50.38    565
50.4     504
50.42    403
50.44    345
50.46    207
50.48    189
50.5     156
50.52    139
50.54    182
50.56    275
50.58    355
50.6     402
50.62    415
50.64    432
50.66    436
50.68    471
50.7     459
50.72    429
50.74    398
50.76    291
50.78    260
50.8     220
50.82    233
50.84    289
50.86    349
50.88    432
50.9     522
50.92    508
50.94    499
50.96    419
50.98    371
51.0     285
51.02    307
51.04    294
51.06    302
51.08    291
51.1     321
51.12    362
51.14    458
51.16    492
51.18    467
51.2     436
51.22    527
51.24    526
51.26    546
51.28    510
51.3     530
51.32    613
51.34    589
51.36    544
51.38    440
51.4     360
51.42    377
51.44    272
51.46    230
51.48    295
51.5     360
51.52    531
51.54    578
51.56    582
51.58    670
51.6     681
51.62    647
51.64    448
51.66    322
51.68    292
51.7     247
51.72    219
51.74    188
51.76    171
51.78    292
51.8     353
51.82    369
51.84    359
51.86    422
51.88    446
51.9     508
51.92    488
51.94    494
51.96    501
51.98    504
52.0     480
52.02    444
52.04    425
52.06    378
52.08    375
52.1     404
52.12    405
52.14    479
52.16    537
52.18    590
52.2     588
52.22    565
52.24    554
52.26    491
52.28    479
52.3     457
52.32    427
52.34    476
52.36    463
52.38    512
52.4     537
52.42    522
52.44    499
52.46    466
52.48    444
52.5     432
52.52    380
52.54    383
52.56    387
52.58    477
52.6     537
52.62    551
52.64    543
52.66    595
52.68    598
52.7     592
52.72    545
52.74    510
52.76    535
52.78    564
52.8     516
52.82    440
52.84    376
52.86    356
52.88    359
52.9     378
52.92    409
52.94    499
52.96    630
52.98    719
53.0     744
53.02    742
53.04    743
53.06    734
53.08    737
53.1     716
53.12    721
53.14    725
53.16    741
53.18    786
53.2     859
53.22    1047
53.24    1239
53.26    1447
53.28    1734
53.3     2052
53.32    2482
53.34    3019
53.36    3660
53.38    4456
53.4     5404
53.42    6265
53.44    6942
53.46    7301
53.48    7328
53.5     6938
53.52    6244
53.54    5349
53.56    4366
53.58    3522
53.6     2830
53.62    2196
53.64    1804
53.66    1501
53.68    1316
53.7     1168
53.72    1039
53.74    951
53.76    902
53.78    849
53.8     797
53.82    729
53.84    673
53.86    627
53.88    629
53.9     575
53.92    552
53.94    541
53.96    534
53.98    552
54.0     558
54.02    556
54.04    521
54.06    526
54.08    538
54.1     490
54.12    447
54.14    397
54.16    385
54.18    407
54.2     451
54.22    478
54.24    485
54.26    499
54.28    482
54.3     443
54.32    399
54.34    342
54.36    326
54.38    343
54.4     384
54.42    364
54.44    358
54.46    355
54.48    389
54.5     414
54.52    405
54.54    439
54.56    481
54.58    519
54.6     502
54.62    479
54.64    440
54.66    434
54.68    436
54.7     387
54.72    347
54.74    407
54.76    411
54.78    417
54.8     428
54.82    490
54.84    504
54.86    496
54.88    501
54.9     421
54.92    374
54.94    340
54.96    262
54.98    260
55.0     301
55.02    412
55.04    502
55.06    582
55.08    679
55.1     644
55.12    600
55.14    470
55.16    321
55.18    234
55.2     172
55.22    131
55.24    124
55.26    170
55.28    263
55.3     310
55.32    382
55.34    393
55.36    413
55.38    506
55.4     544
55.42    549
55.44    542
55.46    548
55.48    590
55.5     585
55.52    594
55.54    555
55.56    575
55.58    600
55.6     534
55.62    468
55.64    430
55.66    407
55.68    373
55.7     319
55.72    281
55.74    319
55.76    415
55.78    463
55.8     479
55.82    526
55.84    532
55.86    496
55.88    402
55.9     340
55.92    304
55.94    313
55.96    316
55.98    321
56.0     376
56.02    400
56.04    362
56.06    397
56.08    412
56.1     427
56.12    435
56.14    426
56.16    411
56.18    396
56.2     401
56.22    377
56.24    335
56.26    372
56.28    399
56.3     488
56.32    511
56.34    561
56.36    563
56.38    520
56.4     506
56.42    478
56.44    372
56.46    336
56.48    369
56.5     488
56.52    508
56.54    524
56.56    492
56.58    423
56.6     471
56.62    444
56.64    419
56.66    407
56.68    404
56.7     482
56.72    483
56.74    476
56.76    464
56.78    450
56.8     506
56.82    510
56.84    562
56.86    543
56.88    507
56.9     539
56.92    497
56.94    496
56.96    460
56.98    423
57.0     399
57.02    403
57.04    475
57.06    502
57.08    541
57.1     598
57.12    633
57.14    653
57.16    691
57.18    636
57.2     571
57.22    555
57.24    525
57.26    477
57.28    492
57.3     546
57.32    582
57.34    582
57.36    602
57.38    532
57.4     520
57.42    514
57.44    456
57.46    400
57.48    458
57.5     577
57.52    609
57.54    621
57.56    625
57.58    669
57.6     717
57.62    723
57.64    660
57.66    590
57.68    646
57.7     723
57.72    697
57.74    692
57.76    678
57.78    656
57.8     731
57.82    763
57.84    787
57.86    858
57.88    1037
57.9     1198
57.92    1348
57.94    1558
57.96    1674
57.98    1775
58.0     2024
58.02    2296
58.04    2556
58.06    2962
58.08    3441
58.1     4018
58.12    4908
58.14    5996
58.16    7305
58.18    8959
58.2     10958
58.22    12995
58.24    14733
58.26    16081
58.28    16560
58.3     16197
58.32    15143
58.34    13356
58.36    11313
58.38    9307
58.4     7585
58.42    6068
58.44    4930
58.46    4105
58.48    3449
58.5     2926
58.52    2523
58.54    2149
58.56    1850
58.58    1680
58.6     1553
58.62    1360
58.64    1238
58.66    1137
58.68    1045
58.7     924
58.72    843
58.74    776
58.76    718
58.78    771
58.8     810
58.82    833
58.84    888
58.86    879
58.88    839
58.9     777
58.92    742
58.94    686
58.96    615
58.98    576
59.0     472
59.02    428
59.04    413
59.06    350
59.08    373
59.1     412
59.12    444
59.14    533
59.16    555
59.18    569
59.2     598
59.22    609
59.24    620
59.26    626
59.28    653
59.3     597
59.32    550
59.34    525
59.36    406
59.38    381
59.4     424
59.42    386
59.44    365
59.46    399
59.48    415
59.5     365
59.52    432
59.54    384
59.56    345
59.58    352
59.6     423
59.62    454
59.64    472
59.66    519
59.68    532
59.7     507
59.72    564
59.74    518
59.76    490
59.78    451
59.8     428
59.82    424
59.84    409
59.86    432
59.88    457
59.9     452
59.92    434
59.94    420
59.96    443
59.98    445
60.0     395
60.02    377
60.04    359
60.06    398
60.08    425
60.1     437
60.12    444
60.14    461
60.16    473
60.18    461
60.2     481
60.22    492
60.24    497
60.26    497
60.28    525
60.3     550
60.32    554
60.34    537
60.36    454
60.38    413
60.4     451
60.42    427
60.44    413
60.46    366
60.48    379
60.5     379
60.52    370
60.54    403
60.56    353
60.58    359
60.6     420
60.62    467
60.64    477
60.66    501
60.68    543
60.7     543
60.72    541
60.74    583
60.76    523
60.78    469
60.8     461
60.82    408
60.84    336
60.86    343
60.88    364
60.9     374
60.92    459
60.94    501
60.96    502
60.98    498
61.0     490
61.02    400
61.04    437
61.06    451
61.08    465
61.1     477
61.12    457
61.14    425
61.16    458
61.18    498
61.2     503
61.22    456
61.24    566
61.26    591
61.28    561
61.3     569
61.32    518
61.34    513
61.36    494
61.38    542
61.4     559
61.42    548
61.44    638
61.46    677
61.48    664
61.5     634
61.52    588
61.54    559
61.56    526
61.58    542
61.6     554
61.62    571
61.64    612
61.66    650
61.68    733
61.7     737
61.72    805
61.74    812
61.76    865
61.78    896
61.8     981
61.82    1097
61.84    1164
61.86    1319
61.88    1567
61.9     1795
61.92    2061
61.94    2318
61.96    2730
61.98    3238
62.0     3977
62.02    4969
62.04    6258
62.06    7947
62.08    9984
62.1     12089
62.12    13992
62.14    15383
62.16    16149
62.18    16132
62.2     15453
62.22    14229
62.24    12662
62.26    10967
62.28    9454
62.3     8012
62.32    6779
62.34    5590
62.36    4652
62.38    3797
62.4     3115
62.42    2604
62.44    2095
62.46    1741
62.48    1482
62.5     1253
62.52    1144
62.54    1047
62.56    1014
62.58    968
62.6     886
62.62    910
62.64    828
62.66    790
62.68    750
62.7     688
62.72    677
62.74    667
62.76    592
62.78    508
62.8     422
62.82    448
62.84    409
62.86    393
62.88    426
62.9     415
62.92    447
62.94    458
62.96    418
62.98    351
63.0     387
63.02    458
63.04    505
63.06    519
63.08    531
63.1     551
63.12    549
63.14    513
63.16    477
63.18    410
63.2     410
63.22    445
63.24    424
63.26    413
63.28    452
63.3     465
63.32    452
63.34    420
63.36    414
63.38    387
63.4     377
63.42    396
63.44    416
63.46    433
63.48    470
63.5     450
63.52    481
63.54    447
63.56    476
63.58    483
63.6     473
63.62    434
63.64    460
63.66    404
63.68    401
63.7     365
63.72    380
63.74    367
63.76    391
63.78    410
63.8     440
63.82    398
63.84    441
63.86    431
63.88    411
63.9     349
63.92    368
63.94    351
63.96    364
63.98    382
64.0     411
64.02    395
64.04    453
64.06    436
64.08    416
64.1     463
64.12    458
64.14    406
64.16    441
64.18    453
64.2     467
64.22    479
64.24    497
64.26    493
64.28    523
64.3     620
64.32    638
64.34    635
64.36    643
64.38    618
64.4     580
64.42    556
64.44    488
64.46    421
64.48    420
64.5     494
64.52    571
64.54    651
64.56    688
64.58    757
64.6     858
64.62    1034
64.64    1219
64.66    1419
64.68    1680
64.7     2004
64.72    2367
64.74    2767
64.76    3169
64.78    3611
64.8     3909
64.82    4189
64.84    4308
64.86    4235
64.88    3981
64.9     3686
64.92    3327
64.94    2954
64.96    2631
64.98    2353
65.0     2042
65.02    1847
65.04    1632
65.06    1400
65.08    1175
65.1     1015
65.12    904
65.14    793
65.16    657
65.18    589
65.2     528
65.22    521
65.24    448
65.26    400
65.28    340
65.3     302
65.32    344
65.34    356
65.36    396
65.38    477
65.4     503
65.42    585
65.44    544
65.46    505
65.48    461
65.5     407
65.52    440
65.54    417
65.56    417
65.58    368
65.6     260
65.62    292
65.64    287
65.66    304
65.68    325
65.7     318
65.72    369
65.74    362
65.76    378
65.78    385
65.8     339
65.82    390
65.84    421
65.86    413
65.88    379
65.9     344
65.92    374
65.94    323
65.96    420
65.98    501
66.0     477
66.02    482
66.04    454
66.06    423
66.08    367
66.1     337
66.12    308
66.14    287
66.16    358
66.18    394
66.2     370
66.22    400
66.24    438
66.26    435
66.28    447
66.3     456
66.32    379
66.34    360
66.36    265
66.38    263
66.4     262
66.42    335
66.44    373
66.46    350
66.48    363
66.5     404
66.52    379
66.54    376
66.56    337
66.58    368
66.6     381
66.62    375
66.64    289
66.66    275
66.68    215
66.7     296
66.72    322
66.74    412
66.76    415
66.78    416
66.8     385
66.82    296
66.84    263
66.86    298
66.88    252
66.9     310
66.92    345
66.94    433
66.96    475
66.98    495
67.0     482
67.02    436
67.04    449
67.06    365
67.08    350
67.1     313
67.12    238
67.14    181
67.16    196
67.18    188
67.2     169
67.22    242
67.24    353
67.26    391
67.28    507
67.3     521
67.32    529
67.34    585
67.36    582
67.38    572
67.4     482
67.42    434
67.44    354
67.46    222
67.48    154
67.5     133
67.52    165
67.54    198
67.56    206
67.58    294
67.6     320
67.62    345
67.64    328
67.66    360
67.68    374
67.7     421
67.72    414
67.74    378
67.76    395
67.78    394
67.8     385
67.82    391
67.84    407
67.86    457
67.88    428
67.9     445
67.92    454
67.94    438
67.96    441
67.98    445
68.0     445
68.02    441
68.04    425
68.06    387
68.08    289
68.1     255
68.12    238
68.14    207
68.16    240
68.18    294
68.2     365
68.22    387
68.24    410
68.26    409
68.28    448
68.3     478
68.32    504
68.34    508
68.36    540
68.38    566
68.4     521
68.42    484
68.44    469
68.46    449
68.48    465
68.5     428
68.52    440
68.54    410
68.56    452
68.58    521
68.6     543
68.62    584
68.64    604
68.66    607
68.68    631
68.7     671
68.72    785
68.74    896
68.76    1068
68.78    1324
68.8     1512
68.82    1709
68.84    2011
68.86    2319
68.88    2677
68.9     3027
68.92    3383
68.94    3612
68.96    3833
68.98    3930
69.0     3867
69.02    3660
69.04    3393
69.06    2985
69.08    2591
69.1     2248
69.12    1923
69.14    1625
69.16    1455
69.18    1287
69.2     1159
69.22    1012
69.24    929
69.26    832
69.28    749
69.3     670
69.32    604
69.34    537
69.36    510
69.38    461
69.4     445
69.42    489
69.44    499
69.46    515
69.48    458
69.5     440
69.52    468
69.54    454
69.56    463
69.58    399
69.6     392
69.62    344
69.64    274
69.66    241
69.68    291
69.7     361
69.72    446
69.74    491
69.76    478
69.78    481
69.8     472
69.82    449
69.84    424
69.86    399
69.88    477
69.9     442
69.92    442
69.94    375
69.96    333
69.98    306
70.0     258
70.02    270
70.04    277
70.06    307
70.08    319
70.1     284
70.12    321
70.14    331
70.16    379
70.18    408
70.2     488
70.22    534
70.24    644
70.26    719
70.28    713
70.3     755
70.32    816
70.34    864
70.36    889
70.38    972
70.4     983
70.42    1032
70.44    1140
70.46    1244
70.48    1324
70.5     1453
70.52    1547
70.54    1693
70.56    1808
70.58    1883
70.6     1949
70.62    1957
70.64    1880
70.66    1777
70.68    1595
70.7     1483
70.72    1317
70.74    1140
70.76    944
70.78    791
70.8     651
70.82    457
70.84    379
70.86    361
70.88    393
70.9     416
70.92    420
70.94    414
70.96    411
70.98    425
71.0     385
71.02    444
71.04    508
71.06    517
71.08    422
71.1     353
71.12    286
71.14    223
71.16    216
71.18    212
71.2     224
71.22    318
71.24    350
71.26    360
71.28    362
71.3     366
71.32    451
71.34    482
71.36    487
71.38    487
71.4     464
71.42    429
71.44    390
71.46    337
71.48    291
71.5     295
71.52    366
71.54    348
71.56    327
71.58    316
71.6     313
71.62    282
71.64    332
71.66    397
71.68    519
71.7     589
71.72    536
71.74    507
71.76    458
71.78    357
71.8     329
71.82    286
71.84    313
71.86    354
71.88    386
71.9     408
71.92    364
71.94    369
71.96    372
71.98    436
72.0     465
72.02    480
72.04    518
72.06    520
72.08    520
72.1     548
72.12    522
72.14    610
72.16    639
72.18    681
72.2     663
72.22    718
72.24    766
72.26    825
72.28    901
72.3     1016
72.32    1203
72.34    1442
72.36    1615
72.38    1818
72.4     2091
72.42    2478
72.44    2846
72.46    3297
72.48    3815
72.5     4234
72.52    4632
72.54    4837
72.56    4919
72.58    4853
72.6     4570
72.62    4266
72.64    3819
72.66    3399
72.68    2970
72.7     2528
72.72    2165
72.74    1861
72.76    1659
72.78    1460
72.8     1291
72.82    1246
72.84    1102
72.86    982
72.88    891
72.9     801
72.92    690
72.94    655
72.96    587
72.98    532
73.0     545
73.02    503
73.04    430
73.06    506
73.08    581
73.1     552
73.12    578
73.14    603
73.16    610
73.18    587
73.2     580
73.22    517
73.24    558
73.26    592
73.28    505
73.3     448
73.32    494
73.34    487
73.36    569
73.38    675
73.4     763
73.42    836
73.44    959
73.46    989
73.48    989
73.5     1043
73.52    1038
73.54    981
73.56    958
73.58    875
73.6     765
73.62    682
73.64    658
73.66    603
73.68    567
73.7     572
73.72    492
73.74    483
73.76    460
73.78    485
73.8     487
73.82    503
73.84    500
73.86    464
73.88    490
73.9     507
73.92    538
73.94    654
73.96    663
73.98    666
74.0     580
74.02    536
74.04    488
74.06    486
74.08    597
74.1     751
74.12    953
74.14    1069
74.16    1086
74.18    1241
74.2     1400
74.22    1595
74.24    1743
74.26    1976
74.28    2192
74.3     2287
74.32    2226
74.34    2106
74.36    1999
74.38    1897
74.4     1710
74.42    1641
74.44    1483
74.46    1475
74.48    1350
74.5     1228
74.52    1116
74.54    1107
74.56    1103
74.58    971
74.6     934
74.62    988
74.64    912
74.66    944
74.68    976
74.7     1112
74.72    1261
74.74    1450
74.76    1677
74.78    1792
74.8     1988
74.82    2090
74.84    2164
74.86    2215
74.88    2265
74.9     2151
74.92    1952
74.94    1724
74.96    1551
74.98    1358
75.0     1216
75.02    1074
75.04    960
75.06    855
75.08    737
75.1     612
75.12    496
75.14    496
75.16    535
75.18    629
75.2     631
75.22    634
75.24    595
75.26    565
75.28    497
75.3     546
75.32    505
75.34    543
75.36    468
75.38    473
75.4     400
75.42    420
75.44    365
75.46    324
75.48    315
75.5     340
75.52    241
75.54    191
75.56    123
75.58    199
75.6     251
75.62    337
75.64    346
75.66    450
75.68    517
75.7     441
75.72    371
75.74    394
75.76    443
75.78    543
75.8     531
75.82    541
75.84    500
75.86    477
75.88    331
75.9     166
75.92    193
75.94    301
75.96    378
75.98    399
76.0     327
76.02    364
76.04    308
76.06    275
76.08    266
76.1     347
76.12    480
76.14    546
76.16    536
76.18    510
76.2     452
76.22    450
76.24    356
76.26    320
76.28    275
76.3     274
76.32    233
76.34    190
76.36    214
76.38    282
76.4     307
76.42    349
76.44    323
76.46    360
76.48    354
76.5     386
76.52    361
76.54    340
76.56    362
76.58    304
76.6     281
76.62    271
76.64    252
76.66    341
76.68    329
76.7     342
76.72    347
76.74    334
76.76    338
76.78    249
76.8     317
76.82    328
76.84    342
76.86    367
76.88    313
76.9     353
76.92    395
76.94    391
76.96    451
76.98    495
77.0     528
77.02    467
77.04    444
77.06    429
77.08    412
77.1     438
77.12    398
77.14    434
77.16    550
77.18    585
77.2     526
77.22    518
77.24    605
77.26    640
77.28    741
77.3     810
77.32    861
77.34    1081
77.36    1236
77.38    1383
77.4     1617
77.42    1972
77.44    2329
77.46    2711
77.48    3249
77.5     3766
77.52    4254
77.54    4739
77.56    5004
77.58    5238
77.6     5382
77.62    5316
77.64    5036
77.66    4678
77.68    4302
77.7     3891
77.72    3420
77.74    2988
77.76    2600
77.78    2331
77.8     2114
77.82    1837
77.84    1604
77.86    1394
77.88    1227
77.9     1088
77.92    968
77.94    887
77.96    863
77.98    872
78.0     858
78.02    763
78.04    718
78.06    693
78.08    562
78.1     536
78.12    526
78.14    457
78.16    438
78.18    442
78.2     392
78.22    330
78.24    314
78.26    348
78.28    319
78.3     341
78.32    354
78.34    289
78.36    247
78.38    243
78.4     234
78.42    186
78.44    131
78.46    199
78.48    227
78.5     211
78.52    244
78.54    262
78.56    319
78.58    398
78.6     431
78.62    401
78.64    331
78.66    328
78.68    287
78.7     246
78.72    204
78.74    248
78.76    290
78.78    311
78.8     315
78.82    303
78.84    274
78.86    254
78.88    293
78.9     348
78.92    365
78.94    368
78.96    365
78.98    335
79.0     284
79.02    233
79.04    202
79.06    159
79.08    187
79.1     312
79.12    336
79.14    318
79.16    378
79.18    384
79.2     318
79.22    301
79.24    272
79.26    264
79.28    248
79.3     306
79.32    280
79.34    207
79.36    248
79.38    247
79.4     186
79.42    169
79.44    202
79.46    207
79.48    196
79.5     232
79.52    236
79.54    244
79.56    314
79.58    335
79.6     343
79.62    323
79.64    344
79.66    366
79.68    401
79.7     385
79.72    351
79.74    352
79.76    331
79.78    217
79.8     227
79.82    228
79.84    228
79.86    303
79.88    323
79.9     289
79.92    324
79.94    411
79.96    449
79.98    444
80.0     529
80.02    583
80.04    607
80.06    645
80.08    638
80.1     593
80.12    608
80.14    583
80.16    556
80.18    534
80.2     480
80.22    445
80.24    421
80.26    386
80.28    410
80.3     342
80.32    323
80.34    236
80.36    275
80.38    243
80.4     243
80.42    244
80.44    252
80.46    271
80.48    321
80.5     278
80.52    297
80.54    334
80.56    381
80.58    354
80.6     399
80.62    427
80.64    376
80.66    377
80.68    324
80.7     291
80.72    259
80.74    311
80.76    297
80.78    294
80.8     300
80.82    331
80.84    278
80.86    269
80.88    210
80.9     195
80.92    181
80.94    247
80.96    312
80.98    333
81.0     377
81.02    462
81.04    474
81.06    434
81.08    361
81.1     358
81.12    346
81.14    318
81.16    240
81.18    170
81.2     157
81.22    151
81.24    137
81.26    78
81.28    58
81.3     165
81.32    205
81.34    208
81.36    173
81.38    203
81.4     228
81.42    253
81.44    275
81.46    245
81.48    278
81.5     346
81.52    339
81.54    287
81.56    213
81.58    221
81.6     201
81.62    198
81.64    153
81.66    118
81.68    178
81.7     198
81.72    227
81.74    210
81.76    255
81.78    304
81.8     336
81.82    352
81.84    319
81.86    306
81.88    304
81.9     274
81.92    276
81.94    278
81.96    318
81.98    274
82.0     286
82.02    257
82.04    247
82.06    231
82.08    253
82.1     273
82.12    331
82.14    369
82.16    405
82.18    373
82.2     359
82.22    336
82.24    320
82.26    277
82.28    269
82.3     252
82.32    241
82.34    219
82.36    140
82.38    120
82.4     131
82.42    131
82.44    101
82.46    130
82.48    156
82.5     175
82.52    185
82.54    211
82.56    164
82.58    230
82.6     271
82.62    264
82.64    196
82.66    232
82.68    237
82.7     250
82.72    264
82.74    287
82.76    286
82.78    322
82.8     336
82.82    326
82.84    233
82.86    258
82.88    257
82.9     256
82.92    249
82.94    251
82.96    271
82.98    272
83.0     269
83.02    248
83.04    201
83.06    151
83.08    123
83.1     167
83.12    188
83.14    235
83.16    254
83.18    238
83.2     274
83.22    229
83.24    260
83.26    241
83.28    298
83.3     334
83.32    327
83.34    339
83.36    277
83.38    231
83.4     231
83.42    220
83.44    264
83.46    294
83.48    286
83.5     259
83.52    270
83.54    206
83.56    147
83.58    97
83.6     61
83.62    137
83.64    109
83.66    105
83.68    112
83.7     178
83.72    288
83.74    319
83.76    341
83.78    354
83.8     372
83.82    477
83.84    350
83.86    271
83.88    224
83.9     207
83.92    225
83.94    185
83.96    131
83.98    101
84.0     52
84.02    61
84.04    7
84.06    3
84.08    1
84.1     44
84.12    120
84.14    223
84.16    307
84.18    324
84.2     296
84.22    330
84.24    356
84.26    294
84.28    311
84.3     294
84.32    275
84.34    312
84.36    327
84.38    346
84.4     279
84.42    219
84.44    221
84.46    177
84.48    117
84.5     99
84.52    130
84.54    125
84.56    191
84.58    261
84.6     269
84.62    270
84.64    355
84.66    406
84.68    434
84.7     493
84.72    504
84.74    489
84.76    486
84.78    399
84.8     464
84.82    502
84.84    512
84.86    484
84.88    404
84.9     328
84.92    200
84.94    173
84.96    135
84.98    93
85.0     173
85.02    177
85.04    178
85.06    161
85.08    54
85.1     32
85.12    67
85.14    191
85.16    303
85.18    327
85.2     388
85.22    375
85.24    353
85.26    327
85.28    267
85.3     260
85.32    312
85.34    356
85.36    404
85.38    362
85.4     353
85.42    265
85.44    212
85.46    185
85.48    181
85.5     89
85.52    62
85.54    93
85.56    83
85.58    74
85.6     72
85.62    45
85.64    123
85.66    179
85.68    260
85.7     279
85.72    319
85.74    431
85.76    392
85.78    368
85.8     304
85.82    237
85.84    280
85.86    249
85.88    288
85.9     316
85.92    305
85.94    354
85.96    289
85.98    281
86.0     244
86.02    240
86.04    294
86.06    194
86.08    254
86.1     240
86.12    222
86.14    259
86.16    230
86.18    297
86.2     344
86.22    365
86.24    409
86.26    405
86.28    489
86.3     448
86.32    537
86.34    654
86.36    679
86.38    813
86.4     946
86.42    976
86.44    1026
86.46    1078
86.48    1087
86.5     1040
86.52    995
86.54    910
86.56    810
86.58    762
86.6     662
86.62    541
86.64    531
86.66    477
86.68    445
86.7     452
86.72    313
86.74    355
86.76    409
86.78    380
86.8     424
86.82    486
86.84    537
86.86    535
86.88    474
86.9     442
86.92    359
86.94    433
86.96    393
86.98    337
87.0     348
87.02    339
87.04    295
87.06    252
87.08    146
87.1     65
87.12    38
87.14    47
87.16    55
87.18    74
87.2     38
87.22    46
87.24    48
87.26    61
87.28    74
87.3     134
87.32    185
87.34    305
87.36    364
87.38    422
87.4     404
87.42    370
87.44    287
87.46    225
87.48    213
87.5     224
87.52    249
87.54    285
87.56    255
87.58    211
87.6     189
87.62    125
87.64    92
87.66    126
87.68    218
87.7     310
87.72    400
87.74    401
87.76    406
87.78    371
87.8     344
87.82    322
87.84    323
87.86    339
87.88    346
87.9     287
87.92    214
87.94    103
87.96    58
87.98    104
88.0     64
88.02    91
88.04    95
88.06    139
88.08    173
88.1     108
88.12    54
88.14    19
88.16    81
88.18    222
88.2     230
88.22    301
88.24    340
88.26    304
88.28    297
88.3     202
88.32    158
88.34    181
88.36    160
88.38    210
88.4     213
88.42    245
88.44    256
88.46    232
88.48    256
88.5     280
88.52    341
88.54    392
88.56    340
88.58    350
88.6     313
88.62    260
88.64    232
88.66    191
88.68    212
88.7     263
88.72    285
88.74    227
88.76    162
88.78    146
88.8     137
88.82    79
88.84    47
88.86    66
88.88    155
88.9     255
88.92    284
88.94    282
88.96    248
88.98    225
89.0     227
89.02    232
89.04    203
89.06    222
89.08    269
89.1     341
89.12    368
89.14    344
89.16    247
89.18    206
89.2     212
89.22    243
89.24    214
89.26    204
89.28    205
89.3     161
89.32    87
89.34    45
89.36    12
89.38    67
89.4     91
89.42    127
89.44    150
89.46    128
89.48    136
89.5     126
89.52    153
89.54    200
89.56    232
89.58    346
89.6     292
89.62    314
89.64    290
89.66    300
89.68    352
89.7     346
89.72    325
89.74    319
89.76    293
89.78    264
89.8     177
89.82    153
89.84    135
89.86    147
89.88    182
89.9     223
89.92    274
89.94    366
89.96    424
89.98    420
90.0     428
