?
5.0      765
5.02     765
5.04     990
5.06     937
5.08     911
5.1      940
5.12     856
5.14     864
5.16     863
5.18     879
5.2      887
5.22     882
5.24     916
5.26     946
5.28     955
5.3      954
5.32     898
5.34     907
5.36     882
5.38     901
5.4      889
5.42     877
5.44     924
5.46     878
5.48     898
5.5      891
5.52     873
5.54     882
5.56     863
5.58     880
5.6      894
5.62     922
5.64     951
5.66     922
5.68     911
5.7      907
5.72     860
5.74     836
5.76     805
5.78     788
5.8      813
5.82     822
5.84     876
5.86     890
5.88     876
5.9      884
5.92     842
5.94     856
5.96     834
5.98     799
6.0      815
6.02     791
6.04     828
6.06     820
6.08     806
6.1      785
6.12     784
6.14     767
6.16     816
6.18     811
6.2      861
6.22     815
6.24     825
6.26     783
6.28     801
6.3      771
6.32     771
6.34     712
6.36     793
6.38     783
6.4      829
6.42     794
6.44     802
6.46     774
6.48     806
6.5      767
6.52     774
6.54     720
6.56     781
6.58     756
6.6      784
6.62     775
6.64     783
6.66     777
6.68     745
6.7      749
6.72     717
6.74     686
6.76     685
6.78     640
6.8      672
6.82     674
6.84     739
6.86     739
6.88     787
6.9      788
6.92     720
6.94     708
6.96     679
6.98     634
7.0      714
7.02     700
7.04     742
7.06     762
7.08     752
7.1      729
7.12     682
7.14     696
7.16     695
7.18     666
7.2      739
7.22     715
7.24     727
7.26     787
7.28     768
7.3      774
7.32     722
7.34     706
7.36     656
7.38     633
7.4      644
7.42     655
7.44     729
7.46     740
7.48     769
7.5      762
7.52     762
7.54     734
7.56     712
7.58     706
7.6      656
7.62     626
7.64     604
7.66     541
7.68     614
7.7      696
7.72     700
7.74     699
7.76     687
7.78     703
7.8      660
7.82     601
7.84     621
7.86     631
7.88     687
7.9      719
7.92     697
7.94     695
7.96     691
7.98     722
8.0      682
8.02     662
8.04     678
8.06     663
8.08     656
8.1      685
8.12     696
8.14     671
8.16     657
8.18     657
8.2      588
8.22     629
8.24     601
8.26     631
8.28     678
8.3      677
8.32     667
8.34     658
8.36     656
8.38     692
8.4      659
8.42     696
8.44     721
8.46     719
8.48     744
8.5      694
8.52     659
8.54     656
8.56     661
8.58     708
8.6      742
8.62     756
8.64     814
8.66     773
8.68     793
8.7      755
8.72     666
8.74     673
8.76     646
8.78     681
8.8      698
8.82     689
8.84     678
8.86     684
8.88     685
8.9      714
8.92     696
8.94     788
8.96     782
8.98     866
9.0      853
9.02     862
9.04     788
9.06     806
9.08     707
9.1      662
9.12     625
9.14     670
9.16     695
9.18     717
9.2      716
9.22     744
9.24     700
9.26     700
9.28     645
9.3      579
9.32     597
9.34     599
9.36     650
9.38     628
9.4      662
9.42     666
9.44     671
9.46     666
9.48     674
9.5      659
9.52     677
9.54     656
9.56     654
9.58     636
9.6      625
9.62     577
9.64     611
9.66     577
9.68     547
9.7      547
9.72     546
9.74     536
9.76     597
9.78     595
9.8      603
9.82     583
9.84     627
9.86     609
9.88     566
9.9      524
9.92     496
9.94     517
9.96     537
9.98     498
10.0     506
10.02    504
10.04    550
10.06    563
10.08    529
10.1     516
10.12    483
10.14    486
10.16    465
10.18    476
10.2     479
10.22    452
10.24    476
10.26    521
10.28    480
10.3     494
10.32    448
10.34    449
10.36    499
10.38    489
10.4     490
10.42    464
10.44    503
10.46    586
10.48    591
10.5     563
10.52    544
10.54    532
10.56    576
10.58    530
10.6     525
10.62    527
10.64    526
10.66    585
10.68    568
10.7     526
10.72    596
10.74    517
10.76    497
10.78    461
10.8     487
10.82    503
10.84    478
10.86    496
10.88    508
10.9     599
10.92    630
10.94    573
10.96    575
10.98    545
11.0     513
11.02    549
11.04    502
11.06    512
11.08    555
11.1     596
11.12    585
11.14    598
11.16    615
11.18    590
11.2     577
11.22    648
11.24    622
11.26    653
11.28    639
11.3     627
11.32    573
11.34    563
11.36    561
11.38    564
11.4     560
11.42    576
11.44    620
11.46    659
11.48    590
11.5     598
11.52    616
11.54    597
11.56    570
11.58    533
11.6     542
11.62    566
11.64    612
11.66    625
11.68    592
11.7     590
11.72    653
11.74    603
11.76    619
11.78    644
11.8     687
11.82    660
11.84    659
11.86    664
11.88    632
11.9     615
11.92    635
11.94    623
11.96    699
11.98    722
12.0     712
12.02    693
12.04    681
12.06    679
12.08    684
12.1     736
12.12    718
12.14    750
12.16    735
12.18    704
12.2     710
12.22    745
12.24    753
12.26    709
12.28    707
12.3     771
12.32    774
12.34    751
12.36    731
12.38    728
12.4     732
12.42    753
12.44    731
12.46    625
12.48    650
12.5     716
12.52    767
12.54    749
12.56    804
12.58    828
12.6     779
12.62    750
12.64    729
12.66    679
12.68    771
12.7     817
12.72    839
12.74    821
12.76    797
12.78    857
12.8     742
12.82    715
12.84    732
12.86    699
12.88    748
12.9     759
12.92    716
12.94    705
12.96    689
12.98    788
13.0     741
13.02    713
13.04    748
13.06    750
13.08    792
13.1     818
13.12    784
13.14    779
13.16    798
13.18    840
13.2     805
13.22    795
13.24    829
13.26    842
13.28    841
13.3     774
13.32    724
13.34    726
13.36    732
13.38    782
13.4     803
13.42    873
13.44    910
13.46    943
13.48    909
13.5     850
13.52    843
13.54    855
13.56    839
13.58    834
13.6     888
13.62    920
13.64    887
13.66    884
13.68    902
13.7     892
13.72    871
13.74    857
13.76    842
13.78    864
13.8     913
13.82    903
13.84    921
13.86    957
13.88    1029
13.9     973
13.92    941
13.94    927
13.96    888
13.98    899
14.0     937
14.02    917
14.04    906
14.06    901
14.08    960
14.1     946
14.12    973
14.14    976
14.16    959
14.18    1022
14.2     1045
14.22    909
14.24    867
14.26    910
14.28    882
14.3     825
14.32    829
14.34    878
14.36    878
14.38    919
14.4     963
14.42    947
14.44    995
14.46    1016
14.48    948
14.5     927
14.52    950
14.54    981
14.56    968
14.58    993
14.6     1044
14.62    1002
14.64    976
14.66    984
14.68    941
14.7     896
14.72    905
14.74    936
14.76    929
14.78    913
14.8     959
14.82    996
14.84    1014
14.86    1081
14.88    1152
14.9     1216
14.92    1231
14.94    1250
14.96    1282
14.98    1283
15.0     1219
15.02    1138
15.04    1088
15.06    1101
15.08    1067
15.1     1066
15.12    1067
15.14    1057
15.16    1090
15.18    1055
15.2     1001
15.22    983
15.24    1044
15.26    1041
15.28    1002
15.3     1027
15.32    1061
15.34    1070
15.36    1027
15.38    950
15.4     947
15.42    950
15.44    901
15.46    823
15.48    885
15.5     920
15.52    959
15.54    1057
15.56    1043
15.58    1012
15.6     1075
15.62    1135
15.64    1030
15.66    994
15.68    1145
15.7     1140
15.72    1062
15.74    1109
15.76    1106
15.78    1040
15.8     1082
15.82    1119
15.84    1096
15.86    1205
15.88    1322
15.9     1317
15.92    1306
15.94    1389
15.96    1458
15.98    1442
16.0     1513
16.02    1658
16.04    1794
16.06    1916
16.08    1955
16.1     2039
16.12    2070
16.14    2166
16.16    2339
16.18    2541
16.2     2784
16.22    3118
16.24    3485
16.26    3951
16.28    4562
16.3     5259
16.32    6018
16.34    6995
16.36    8295
16.38    9942
16.4     11918
16.42    14518
16.44    17760
16.46    22093
16.48    27419
16.5     33417
16.52    39489
16.54    44426
16.56    47055
16.58    46408
16.6     42523
16.62    36226
16.64    28368
16.66    20554
16.68    13837
16.7     9033
16.72    6132
16.74    4703
16.76    3969
16.78    3391
16.8     2932
16.82    2673
16.84    2396
16.86    2126
16.88    1977
16.9     1900
16.92    1809
16.94    1772
16.96    1688
16.98    1599
17.0     1471
17.02    1399
17.04    1339
17.06    1285
17.08    1288
17.1     1297
17.12    1274
17.14    1236
17.16    1233
17.18    1191
17.2     1109
17.22    1085
17.24    1082
17.26    1084
17.28    1041
17.3     1059
17.32    1153
17.34    1213
17.36    1173
17.38    1123
17.4     1075
17.42    1036
17.44    990
17.46    950
17.48    888
17.5     963
17.52    1080
17.54    1056
17.56    977
17.58    923
17.6     890
17.62    876
17.64    903
17.66    881
17.68    830
17.7     853
17.72    902
17.74    890
17.76    913
17.78    869
17.8     879
17.82    956
17.84    992
17.86    875
17.88    791
17.9     740
17.92    738
17.94    720
17.96    767
17.98    718
18.0     764
18.02    835
18.04    850
18.06    808
18.08    831
18.1     798
18.12    773
18.14    722
18.16    662
18.18    624
18.2     629
18.22    627
18.24    612
18.26    673
18.28    711
18.3     722
18.32    702
18.34    613
18.36    595
18.38    619
18.4     635
18.42    630
18.44    590
18.46    577
18.48    563
18.5     567
18.52    574
18.54    610
18.56    694
18.58    719
18.6     738
18.62    731
18.64    682
18.66    636
18.68    599
18.7     518
18.72    502
18.74    556
18.76    595
18.78    565
18.8     516
18.82    561
18.84    629
18.86    654
18.88    670
18.9     615
18.92    639
18.94    703
18.96    717
18.98    607
19.0     538
19.02    611
19.04    606
19.06    554
19.08    529
19.1     524
19.12    593
19.14    615
19.16    553
19.18    464
19.2     469
19.22    579
19.24    573
19.26    526
19.28    475
19.3     537
19.32    566
19.34    486
19.36    398
19.38    429
19.4     441
19.42    515
19.44    542
19.46    569
19.48    599
19.5     626
19.52    557
19.54    471
19.56    440
19.58    389
19.6     315
19.62    306
19.64    352
19.66    412
19.68    479
19.7     486
19.72    507
19.74    476
19.76    451
19.78    377
19.8     343
19.82    290
19.84    336
19.86    370
19.88    446
19.9     430
19.92    478
19.94    446
19.96    457
19.98    407
20.0     408
20.02    400
20.04    434
20.06    435
20.08    420
20.1     345
20.12    350
20.14    335
20.16    333
20.18    343
20.2     453
20.22    487
20.24    439
20.26    365
20.28    326
20.3     307
20.32    364
20.34    400
20.36    450
20.38    462
20.4     525
20.42    508
20.44    470
20.46    418
20.48    419
20.5     455
20.52    497
20.54    502
20.56    483
20.58    391
20.6     393
20.62    385
20.64    446
20.66    496
20.68    545
20.7     592
20.72    586
20.74    544
20.76    483
20.78    433
20.8     416
20.82    434
20.84    394
20.86    388
20.88    347
20.9     359
20.92    347
20.94    402
20.96    429
20.98    472
21.0     487
21.02    546
21.04    515
21.06    509
21.08    469
21.1     478
21.12    472
21.14    486
21.16    429
21.18    451
21.2     449
21.22    464
21.24    477
21.26    495
21.28    460
21.3     461
21.32    491
21.34    477
21.36    431
21.38    451
21.4     454
21.42    453
21.44    440
21.46    417
21.48    311
21.5     255
21.52    262
21.54    278
21.56    286
21.58    319
21.6     369
21.62    408
21.64    415
21.66    425
21.68    347
21.7     314
21.72    330
21.74    375
21.76    362
21.78    322
21.8     291
21.82    245
21.84    197
21.86    203
21.88    188
21.9     250
21.92    274
21.94    297
21.96    240
21.98    288
22.0     282
22.02    250
22.04    240
22.06    290
22.08    305
22.1     327
22.12    312
22.14    322
22.16    303
22.18    400
22.2     381
22.22    394
22.24    351
22.26    313
22.28    244
22.3     223
22.32    230
22.34    272
22.36    305
22.38    380
22.4     407
22.42    393
22.44    335
22.46    253
22.48    221
22.5     244
22.52    285
22.54    313
22.56    296
22.58    321
22.6     341
22.62    300
22.64    366
22.66    292
22.68    286
22.7     266
22.72    301
22.74    295
22.76    235
22.78    295
22.8     312
22.82    332
22.84    346
22.86    249
22.88    230
22.9     155
22.92    136
22.94    131
22.96    135
22.98    268
23.0     276
23.02    327
23.04    306
23.06    286
23.08    269
23.1     239
23.12    269
23.14    321
23.16    314
23.18    332
23.2     253
23.22    252
23.24    239
23.26    213
23.28    216
23.3     176
23.32    219
23.34    223
23.36    308
23.38    349
23.4     313
23.42    244
23.44    270
23.46    300
23.48    339
23.5     241
23.52    203
23.54    126
23.56    225
23.58    159
23.6     183
23.62    102
23.64    135
23.66    149
23.68    228
23.7     221
23.72    261
23.74    149
23.76    176
23.78    139
23.8     285
23.82    269
23.84    262
23.86    244
23.88    274
23.9     307
23.92    374
23.94    308
23.96    291
23.98    261
24.0     258
24.02    226
24.04    165
24.06    125
24.08    106
24.1     154
24.12    185
24.14    205
24.16    138
24.18    128
24.2     139
24.22    205
24.24    185
24.26    191
24.28    188
24.3     210
24.32    192
24.34    190
24.36    176
24.38    164
24.4     160
24.42    182
24.44    187
24.46    221
24.48    240
24.5     276
24.52    268
24.54    224
24.56    175
24.58    81
24.6     52
24.62    8
24.64    5
24.66    2
24.68    94
24.7     181
24.72    259
24.74    268
24.76    241
24.78    208
24.8     226
24.82    246
24.84    272
24.86    253
24.88    305
24.9     258
24.92    245
24.94    206
24.96    127
24.98    120
25.0     98
25.02    205
25.04    249
25.06    271
25.08    270
25.1     207
25.12    170
25.14    124
25.16    103
25.18    114
25.2     99
25.22    175
25.24    220
25.26    227
25.28    224
25.3     200
25.32    200
25.34    155
25.36    176
25.38    196
25.4     200
25.42    199
25.44    168
25.46    135
25.48    115
25.5     67
25.52    103
25.54    129
25.56    225
25.58    288
25.6     278
25.62    274
25.64    252
25.66    204
25.68    130
25.7     60
25.72    92
25.74    221
25.76    344
25.78    366
25.8     338
25.82    240
25.84    195
25.86    105
25.88    81
25.9     74
25.92    111
25.94    207
25.96    231
25.98    250
26.0     195
26.02    84
26.04    22
26.06    2
26.08    92
26.1     164
26.12    188
26.14    238
26.16    277
26.18    385
26.2     366
26.22    278
26.24    195
26.26    166
26.28    164
26.3     84
26.32    55
26.34    20
26.36    39
26.38    97
26.4     144
26.42    127
26.44    121
26.46    90
26.48    73
26.5     69
26.52    111
26.54    71
26.56    58
26.58    45
26.6     79
26.62    92
26.64    120
26.66    140
26.68    177
26.7     214
26.72    166
26.74    137
26.76    63
26.78    115
26.8     123
26.82    212
26.84    265
26.86    273
26.88    309
26.9     311
26.92    227
26.94    180
26.96    38
26.98    59
27.0     24
27.02    16
27.04    14
27.06    8
27.08    60
27.1     105
27.12    66
27.14    30
27.16    13
27.18    58
27.2     57
27.22    45
27.24    59
27.26    109
27.28    146
27.3     187
27.32    151
27.34    128
27.36    138
27.38    126
27.4     182
27.42    173
27.44    234
27.46    264
27.48    243
27.5     185
27.52    148
27.54    133
27.56    114
27.58    165
27.6     207
27.62    197
27.64    217
27.66    153
27.68    117
27.7     43
27.72    75
27.74    105
27.76    109
27.78    106
27.8     30
27.82    7
27.84    16
27.86    27
27.88    148
27.9     173
27.92    295
27.94    359
27.96    316
27.98    256
28.0     114
28.02    99
28.04    70
28.06    90
28.08    106
28.1     64
28.12    158
28.14    144
28.16    107
28.18    79
28.2     65
28.22    25
28.24    37
28.26    91
28.28    117
28.3     193
28.32    235
28.34    210
28.36    196
28.38    121
28.4     56
28.42    110
28.44    145
28.46    215
28.48    277
28.5     254
28.52    225
28.54    197
28.56    148
28.58    85
28.6     83
28.62    99
28.64    131
28.66    111
28.68    107
28.7     68
28.72    101
28.74    85
28.76    69
28.78    73
28.8     206
28.82    234
28.84    288
28.86    229
28.88    203
28.9     220
28.92    163
28.94    125
28.96    86
28.98    95
29.0     218
29.02    237
29.04    248
29.06    203
29.08    157
29.1     117
29.12    22
29.14    33
29.16    98
29.18    179
29.2     282
29.22    302
29.24    257
29.26    172
29.28    80
29.3     53
29.32    21
29.34    20
29.36    98
29.38    107
29.4     139
29.42    145
29.44    138
29.46    105
29.48    112
29.5     121
29.52    95
29.54    122
29.56    122
29.58    157
29.6     190
29.62    195
29.64    199
29.66    90
29.68    79
29.7     60
29.72    119
29.74    162
29.76    139
29.78    146
29.8     83
29.82    18
29.84    15
29.86    0
29.88    5
29.9     27
29.92    44
29.94    49
29.96    114
29.98    128
30.0     154
30.02    184
30.04    120
30.06    95
30.08    98
30.1     12
30.12    0
30.14    74
30.16    141
30.18    206
30.2     267
30.22    273
30.24    185
30.26    125
30.28    89
30.3     26
30.32    26
30.34    116
30.36    147
30.38    155
30.4     126
30.42    41
30.44    18
30.46    16
30.48    62
30.5     73
30.52    113
30.54    173
30.56    173
30.58    105
30.6     28
30.62    6
30.64    2
30.66    36
30.68    98
30.7     132
30.72    229
30.74    233
30.76    206
30.78    178
30.8     113
30.82    122
30.84    115
30.86    90
30.88    119
30.9     119
30.92    130
30.94    80
30.96    51
30.98    85
31.0     95
31.02    145
31.04    153
31.06    88
31.08    50
31.1     6
31.12    8
31.14    16
31.16    64
31.18    120
31.2     108
31.22    101
31.24    103
31.26    12
31.28    0
31.3     22
31.32    54
31.34    129
31.36    182
31.38    157
31.4     110
31.42    68
31.44    77
31.46    26
31.48    75
31.5     89
31.52    107
31.54    167
31.56    167
31.58    166
31.6     168
31.62    178
31.64    181
31.66    125
31.68    95
31.7     77
31.72    29
31.74    23
31.76    11
31.78    57
31.8     103
31.82    132
31.84    99
31.86    81
31.88    10
31.9     40
31.92    8
31.94    48
31.96    147
31.98    219
32.0     312
32.02    292
32.04    214
32.06    164
32.08    67
32.1     122
32.12    156
32.14    263
32.16    372
32.18    368
32.2     358
32.22    261
32.24    144
32.26    131
32.28    145
32.3     181
32.32    209
32.34    216
32.36    186
32.38    129
32.4     119
32.42    125
32.44    214
32.46    318
32.48    415
32.5     373
32.52    301
32.54    244
32.56    203
32.58    237
32.6     295
32.62    314
32.64    384
32.66    332
32.68    255
32.7     180
32.72    103
32.74    149
32.76    255
32.78    365
32.8     434
32.82    458
32.84    449
32.86    401
32.88    292
32.9     255
32.92    218
32.94    236
32.96    237
32.98    242
33.0     278
33.02    250
33.04    294
33.06    328
33.08    268
33.1     288
33.12    345
33.14    361
33.16    366
33.18    462
33.2     507
33.22    543
33.24    658
33.26    670
33.28    745
33.3     939
33.32    1185
33.34    1452
33.36    1795
33.38    2278
33.4     2785
33.42    3488
33.44    4355
33.46    5362
33.48    6601
33.5     7888
33.52    9069
33.54    9857
33.56    10109
33.58    9725
33.6     8726
33.62    7435
33.64    5983
33.66    4556
33.68    3382
33.7     2501
33.72    1922
33.74    1512
33.76    1196
33.78    928
33.8     730
33.82    616
33.84    565
33.86    549
33.88    522
33.9     557
33.92    539
33.94    474
33.96    373
33.98    308
34.0     277
34.02    244
34.04    274
34.06    263
34.08    200
34.1     285
34.12    304
34.14    290
34.16    301
34.18    313
34.2     311
34.22    332
34.24    344
34.26    352
34.28    367
34.3     451
34.32    453
34.34    422
34.36    358
34.38    279
34.4     198
34.42    195
34.44    228
34.46    310
34.48    411
34.5     437
34.52    402
34.54    375
34.56    340
34.58    272
34.6     252
34.62    189
34.64    151
34.66    106
34.68    99
34.7     20
34.72    8
34.74    93
34.76    189
34.78    292
34.8     445
34.82    513
34.84    563
34.86    612
34.88    634
34.9     686
34.92    804
34.94    1001
34.96    1308
34.98    1720
35.0     2321
35.02    3185
35.04    4439
35.06    5996
35.08    7663
35.1     9084
35.12    9964
35.14    10166
35.16    9654
35.18    8432
35.2     6905
35.22    5289
35.24    3962
35.26    2906
35.28    2224
35.3     1686
35.32    1310
35.34    1010
35.36    848
35.38    653
35.4     607
35.42    519
35.44    445
35.46    412
35.48    431
35.5     478
35.52    459
35.54    450
35.56    486
35.58    367
35.6     350
35.62    298
35.64    187
35.66    188
35.68    176
35.7     225
35.72    248
35.74    272
35.76    303
35.78    279
35.8     355
35.82    380
35.84    365
35.86    422
35.88    402
35.9     417
35.92    411
35.94    365
35.96    348
35.98    335
36.0     354
36.02    390
36.04    447
36.06    486
36.08    518
36.1     514
36.12    529
36.14    596
36.16    690
36.18    814
36.2     961
36.22    1171
36.24    1376
36.26    1605
36.28    1975
36.3     2377
36.32    2990
36.34    3916
36.36    5220
36.38    7176
36.4     9852
36.42    13200
36.44    16653
36.46    19634
36.48    21602
36.5     22061
36.52    20916
36.54    18478
36.56    15146
36.58    11665
36.6     8543
36.62    6139
36.64    4341
36.66    3141
36.68    2312
36.7     1754
36.72    1393
36.74    1228
36.76    1043
36.78    945
36.8     804
36.82    629
36.84    512
36.86    416
36.88    365
36.9     456
36.92    568
36.94    639
36.96    627
36.98    589
37.0     479
37.02    348
37.04    294
37.06    273
37.08    293
37.1     400
37.12    425
37.14    413
37.16    322
37.18    262
37.2     222
37.22    223
37.24    203
37.26    298
37.28    363
37.3     497
37.32    602
37.34    701
37.36    691
37.38    764
37.4     759
37.42    719
37.44    617
37.46    511
37.48    337
37.5     217
37.52    152
37.54    140
37.56    123
37.58    214
37.6     256
37.62    321
37.64    354
37.66    353
37.68    306
37.7     289
37.72    263
37.74    245
37.76    271
37.78    351
37.8     390
37.82    474
37.84    470
37.86    462
37.88    421
37.9     336
37.92    190
37.94    124
37.96    67
37.98    64
38.0     109
38.02    201
38.04    227
38.06    265
38.08    349
38.1     349
38.12    341
38.14    362
38.16    304
38.18    211
38.2     154
38.22    69
38.24    55
38.26    62
38.28    185
38.3     241
38.32    331
38.34    319
38.36    278
38.38    141
38.4     80
38.42    30
38.44    26
38.46    123
38.48    253
38.5     296
38.52    354
38.54    382
38.56    299
38.58    220
38.6     168
38.62    93
38.64    89
38.66    159
38.68    150
38.7     101
38.72    145
38.74    167
38.76    74
38.78    89
38.8     109
38.82    61
38.84    47
38.86    96
38.88    92
38.9     115
38.92    239
38.94    296
38.96    308
38.98    341
39.0     356
39.02    234
39.04    187
39.06    169
39.08    177
39.1     205
39.12    313
39.14    332
39.16    287
39.18    250
39.2     191
39.22    71
39.24    24
39.26    10
39.28    50
39.3     113
39.32    205
39.34    249
39.36    279
39.38    259
39.4     256
39.42    243
39.44    213
39.46    193
39.48    212
39.5     220
39.52    181
39.54    160
39.56    157
39.58    110
39.6     140
39.62    162
39.64    202
39.66    279
39.68    331
39.7     345
39.72    332
39.74    296
39.76    265
39.78    180
39.8     183
39.82    177
39.84    210
39.86    236
39.88    246
39.9     232
39.92    245
39.94    276
39.96    275
39.98    221
40.0     289
40.02    365
40.04    406
40.06    450
40.08    521
40.1     552
40.12    567
40.14    554
40.16    529
40.18    456
40.2     413
40.22    467
40.24    449
40.26    447
40.28    462
40.3     466
40.32    428
40.34    382
40.36    450
40.38    453
40.4     436
40.42    519
40.44    509
40.46    545
40.48    586
40.5     614
40.52    619
40.54    636
40.56    700
40.58    663
40.6     592
40.62    574
40.64    530
40.66    504
40.68    523
40.7     568
40.72    569
40.74    658
40.76    726
40.78    792
40.8     807
40.82    856
40.84    827
40.86    770
40.88    759
40.9     746
40.92    730
40.94    822
40.96    921
40.98    1073
41.0     1175
41.02    1277
41.04    1321
41.06    1381
41.08    1385
41.1     1450
41.12    1512
41.14    1593
41.16    1780
41.18    1996
41.2     2291
41.22    2661
41.24    3124
41.26    3623
41.28    4228
41.3     4996
41.32    5967
41.34    7188
41.36    8832
41.38    11105
41.4     14344
41.42    18802
41.44    25178
41.46    33686
41.48    44339
41.5     55879
41.52    66667
41.54    74370
41.56    77392
41.58    75225
41.6     68265
41.62    57705
41.64    45677
41.66    34233
41.68    24812
41.7     17825
41.72    13165
41.74    10019
41.76    7836
41.78    6368
41.8     5387
41.82    4614
41.84    3965
41.86    3476
41.88    3024
41.9     2661
41.92    2347
41.94    2076
41.96    1900
41.98    1743
42.0     1610
42.02    1484
42.04    1394
42.06    1302
42.08    1238
42.1     1198
42.12    1102
42.14    1035
42.16    961
42.18    944
42.2     908
42.22    855
42.24    861
42.26    791
42.28    734
42.3     656
42.32    598
42.34    590
42.36    604
42.38    686
42.4     648
42.42    693
42.44    743
42.46    696
42.48    676
42.5     626
42.52    624
42.54    548
42.56    544
42.58    486
42.6     380
42.62    368
42.64    363
42.66    320
42.68    303
42.7     328
42.72    395
42.74    437
42.76    510
42.78    530
42.8     541
42.82    558
42.84    518
42.86    456
42.88    332
42.9     306
42.92    346
42.94    381
42.96    374
42.98    403
43.0     441
43.02    467
43.04    366
43.06    338
43.08    261
43.1     253
43.12    278
43.14    296
43.16    346
43.18    433
43.2     500
43.22    510
43.24    491
43.26    519
43.28    453
43.3     367
43.32    332
43.34    295
43.36    266
43.38    279
43.4     352
43.42    348
43.44    390
43.46    421
43.48    390
43.5     348
43.52    327
43.54    318
43.56    258
43.58    271
43.6     367
43.62    388
43.64    455
43.66    500
43.68    498
43.7     436
43.72    407
43.74    336
43.76    228
43.78    217
43.8     207
43.82    242
43.84    277
43.86    322
43.88    375
43.9     396
43.92    458
43.94    447
43.96    452
43.98    483
44.0     427
44.02    422
44.04    355
44.06    324
44.08    268
44.1     211
44.12    148
44.14    164
44.16    208
44.18    233
44.2     289
44.22    436
44.24    551
44.26    570
44.28    551
44.3     514
44.32    414
44.34    343
44.36    276
44.38    232
44.4     200
44.42    244
44.44    278
44.46    273
44.48    281
44.5     285
44.52    285
44.54    285
44.56    360
44.58    380
44.6     367
44.62    370
44.64    383
44.66    376
44.68    321
44.7     243
44.72    221
44.74    234
44.76    213
44.78    210
44.8     255
44.82    285
44.84    348
44.86    480
44.88    617
44.9     737
44.92    864
44.94    1025
44.96    1152
44.98    1300
45.0     1372
45.02    1381
45.04    1433
45.06    1449
45.08    1404
45.1     1359
45.12    1257
45.14    1134
45.16    964
45.18    821
45.2     674
45.22    518
45.24    456
45.26    340
45.28    306
45.3     413
45.32    400
45.34    383
45.36    323
45.38    287
45.4     297
45.42    235
45.44    232
45.46    221
45.48    283
45.5     406
45.52    409
45.54    452
45.56    406
45.58    388
45.6     335
45.62    168
45.64    107
45.66    43
45.68    51
45.7     86
45.72    91
45.74    172
45.76    227
45.78    330
45.8     293
45.82    227
45.84    213
45.86    149
45.88    162
45.9     152
45.92    153
45.94    234
45.96    295
45.98    350
46.0     302
46.02    345
46.04    305
46.06    238
46.08    208
46.1     146
46.12    189
46.14    234
46.16    266
46.18    300
46.2     319
46.22    418
46.24    403
46.26    376
46.28    344
46.3     283
46.32    279
46.34    178
46.36    144
46.38    114
46.4     104
46.42    124
46.44    140
46.46    170
46.48    142
46.5     158
46.52    167
46.54    118
46.56    165
46.58    139
46.6     186
46.62    233
46.64    206
46.66    248
46.68    200
46.7     270
46.72    234
46.74    207
46.76    244
46.78    204
46.8     213
46.82    175
46.84    157
46.86    193
46.88    172
46.9     225
46.92    227
46.94    285
46.96    247
46.98    202
47.0     209
47.02    171
47.04    219
47.06    173
47.08    246
47.1     295
47.12    307
47.14    263
47.16    219
47.18    256
47.2     197
47.22    127
47.24    166
47.26    191
47.28    265
47.3     168
47.32    191
47.34    154
47.36    158
47.38    141
47.4     14
47.42    42
47.44    86
47.46    153
47.48    196
47.5     140
47.52    248
47.54    238
47.56    270
47.58    315
47.6     291
47.62    336
47.64    304
47.66    297
47.68    236
47.7     186
47.72    193
47.74    159
47.76    135
47.78    135
47.8     169
47.82    207
47.84    238
47.86    226
47.88    275
47.9     376
47.92    379
47.94    342
47.96    272
47.98    241
48.0     276
48.02    242
48.04    192
48.06    237
48.08    357
48.1     418
48.12    413
48.14    407
48.16    409
48.18    337
48.2     259
48.22    127
48.24    40
48.26    107
48.28    106
48.3     143
48.32    188
48.34    204
48.36    288
48.38    248
48.4     181
48.42    115
48.44    107
48.46    149
48.48    168
48.5     216
48.52    268
48.54    319
48.56    428
48.58    427
48.6     361
48.62    319
48.64    320
48.66    331
48.68    282
48.7     213
48.72    208
48.74    244
48.76    303
48.78    303
48.8     236
48.82    190
48.84    136
48.86    136
48.88    45
48.9     60
48.92    124
48.94    241
48.96    371
48.98    389
49.0     371
49.02    281
49.04    212
49.06    215
49.08    124
49.1     113
49.12    161
49.14    194
49.16    206
49.18    236
49.2     228
49.22    217
49.24    175
49.26    179
49.28    104
49.3     96
49.32    121
49.34    115
49.36    129
49.38    191
49.4     149
49.42    153
49.44    123
49.46    195
49.48    178
49.5     214
49.52    221
49.54    263
49.56    315
49.58    309
49.6     244
49.62    285
49.64    277
49.66    238
49.68    185
49.7     163
49.72    179
49.74    199
49.76    232
49.78    257
49.8     333
49.82    394
49.84    380
49.86    321
49.88    358
49.9     303
49.92    238
49.94    199
49.96    161
49.98    164
50.0     136
50.02    80
50.04    73
50.06    119
50.08    220
50.1     197
50.12    274
50.14    383
50.16    398
50.18    379
50.2     311
50.22    270
50.24    225
50.26    189
50.28    146
50.3     111
50.32    206
50.34    226
50.36    185
50.38    208
50.4     243
50.42    296
50.44    308
50.46    255
50.48    225
50.5     241
50.52    252
50.54    204
50.56    164
50.58    173
50.6     194
50.62    196
50.64    164
50.66    121
50.68    126
50.7     91
50.72    57
50.74    99
50.76    165
50.78    211
50.8     238
50.82    241
50.84    265
50.86    241
50.88    270
50.9     230
50.92    206
50.94    295
50.96    290
50.98    283
51.0     298
51.02    231
51.04    204
51.06    165
51.08    119
51.1     136
51.12    145
51.14    157
51.16    208
51.18    225
51.2     285
51.22    265
51.24    300
51.26    310
51.28    289
51.3     262
51.32    231
51.34    171
51.36    212
51.38    144
51.4     197
51.42    233
51.44    298
51.46    362
51.48    390
51.5     330
51.52    298
51.54    223
51.56    190
51.58    122
51.6     77
51.62    52
51.64    72
51.66    108
51.68    143
51.7     187
51.72    242
51.74    314
51.76    427
51.78    431
51.8     428
51.82    422
51.84    372
51.86    293
51.88    230
51.9     127
51.92    137
51.94    88
51.96    92
51.98    113
52.0     183
52.02    263
52.04    355
52.06    350
52.08    390
52.1     416
52.12    400
52.14    310
52.16    332
52.18    346
52.2     362
52.22    344
52.24    329
52.26    304
52.28    330
52.3     314
52.32    211
52.34    219
52.36    245
52.38    253
52.4     267
52.42    239
52.44    285
52.46    382
52.48    430
52.5     402
52.52    397
52.54    385
52.56    340
52.58    240
52.6     171
52.62    88
52.64    88
52.66    128
52.68    183
52.7     211
52.72    365
52.74    406
52.76    471
52.78    417
52.8     414
52.82    331
52.84    338
52.86    261
52.88    210
52.9     209
52.92    271
52.94    225
52.96    296
52.98    311
53.0     404
53.02    493
53.04    608
53.06    617
53.08    686
53.1     753
53.12    726
53.14    716
53.16    751
53.18    768
53.2     842
53.22    892
53.24    972
53.26    1103
53.28    1326
53.3     1599
53.32    1948
53.34    2500
53.36    3130
53.38    3908
53.4     4761
53.42    5602
53.44    6295
53.46    6648
53.48    6652
53.5     6389
53.52    5758
53.54    4966
53.56    4122
53.58    3336
53.6     2749
53.62    2366
53.64    1955
53.66    1602
53.68    1324
53.7     1122
53.72    843
53.74    714
53.76    544
53.78    462
53.8     490
53.82    510
53.84    462
53.86    512
53.88    521
53.9     538
53.92    556
53.94    604
53.96    551
53.98    531
54.0     427
54.02    318
54.04    226
54.06    197
54.08    144
54.1     135
54.12    198
54.14    270
54.16    336
54.18    351
54.2     355
54.22    388
54.24    414
54.26    350
54.28    278
54.3     247
54.32    262
54.34    248
54.36    225
54.38    208
54.4     231
54.42    237
54.44    155
54.46    71
54.48    65
54.5     88
54.52    125
54.54    130
54.56    137
54.58    185
54.6     247
54.62    307
54.64    267
54.66    286
54.68    284
54.7     274
54.72    293
54.74    228
54.76    196
54.78    192
54.8     240
54.82    272
54.84    286
54.86    256
54.88    242
54.9     263
54.92    278
54.94    197
54.96    151
54.98    105
55.0     100
55.02    82
55.04    81
55.06    49
55.08    108
55.1     192
55.12    250
55.14    251
55.16    240
55.18    260
55.2     221
55.22    182
55.24    202
55.26    199
55.28    185
55.3     199
55.32    272
55.34    298
55.36    279
55.38    283
55.4     236
55.42    218
55.44    256
55.46    159
55.48    77
55.5     96
55.52    230
55.54    283
55.56    315
55.58    370
55.6     431
55.62    498
55.64    541
55.66    460
55.68    415
55.7     424
55.72    405
55.74    369
55.76    297
55.78    245
55.8     225
55.82    146
55.84    156
55.86    137
55.88    217
55.9     265
55.92    271
55.94    317
55.96    292
55.98    328
56.0     280
56.02    136
56.04    131
56.06    144
56.08    192
56.1     166
56.12    191
56.14    233
56.16    266
56.18    370
56.2     350
56.22    304
56.24    303
56.26    335
56.28    332
56.3     310
56.32    291
56.34    315
56.36    320
56.38    332
56.4     276
56.42    215
56.44    240
56.46    273
56.48    325
56.5     309
56.52    329
56.54    403
56.56    383
56.58    338
56.6     301
56.62    267
56.64    317
56.66    331
56.68    353
56.7     342
56.72    388
56.74    414
56.76    405
56.78    434
56.8     356
56.82    276
56.84    245
56.86    283
56.88    295
56.9     309
56.92    296
56.94    321
56.96    390
56.98    487
57.0     408
57.02    367
57.04    319
57.06    337
57.08    312
57.1     300
57.12    252
57.14    250
57.16    270
57.18    368
57.2     406
57.22    449
57.24    406
57.26    365
57.28    407
57.3     407
57.32    401
57.34    365
57.36    321
57.38    336
57.4     317
57.42    349
57.44    306
57.46    288
57.48    351
57.5     408
57.52    508
57.54    559
57.56    599
57.58    599
57.6     598
57.62    638
57.64    651
57.66    614
57.68    594
57.7     599
57.72    628
57.74    670
57.76    656
57.78    644
57.8     708
57.82    777
57.84    843
57.86    844
57.88    873
57.9     945
57.92    1103
57.94    1257
57.96    1332
57.98    1461
58.0     1700
58.02    1969
58.04    2253
58.06    2607
58.08    3003
58.1     3552
58.12    4311
58.14    5262
58.16    6407
58.18    7868
58.2     9595
58.22    11427
58.24    13145
58.26    14462
58.28    15093
58.3     15056
58.32    14297
58.34    12927
58.36    11165
58.38    9311
58.4     7513
58.42    6030
58.44    4883
58.46    3983
58.48    3324
58.5     2908
58.52    2492
58.54    2157
58.56    1939
58.58    1758
58.6     1582
58.62    1427
58.64    1309
58.66    1167
58.68    1093
58.7     1012
58.72    833
58.74    703
58.76    574
58.78    522
58.8     513
58.82    489
58.84    505
58.86    501
58.88    570
58.9     575
58.92    645
58.94    655
58.96    606
58.98    627
59.0     605
59.02    532
59.04    470
59.06    378
59.08    351
59.1     315
59.12    333
59.14    331
59.16    356
59.18    361
59.2     336
59.22    327
59.24    349
59.26    377
59.28    415
59.3     431
59.32    357
59.34    348
59.36    328
59.38    242
59.4     188
59.42    224
59.44    240
59.46    281
59.48    302
59.5     305
59.52    292
59.54    346
59.56    382
59.58    348
59.6     369
59.62    368
59.64    292
59.66    324
59.68    337
59.7     294
59.72    303
59.74    366
59.76    386
59.78    451
59.8     462
59.82    376
59.84    277
59.86    264
59.88    249
59.9     181
59.92    201
59.94    234
59.96    283
59.98    441
60.0     457
60.02    432
60.04    324
60.06    336
60.08    311
60.1     233
60.12    258
60.14    276
60.16    299
60.18    432
60.2     517
60.22    537
60.24    483
60.26    531
60.28    480
60.3     403
60.32    396
60.34    294
60.36    193
60.38    222
60.4     257
60.42    261
60.44    219
60.46    275
60.48    294
60.5     291
60.52    328
60.54    321
60.56    321
60.58    321
60.6     372
60.62    405
60.64    346
60.66    370
60.68    353
60.7     319
60.72    338
60.74    417
60.76    388
60.78    350
60.8     363
60.82    349
60.84    313
60.86    369
60.88    347
60.9     299
60.92    299
60.94    320
60.96    274
60.98    193
61.0     181
61.02    141
61.04    137
61.06    199
61.08    165
61.1     195
61.12    258
61.14    339
61.16    436
61.18    486
61.2     550
61.22    503
61.24    458
61.26    428
61.28    321
61.3     254
61.32    200
61.34    206
61.36    254
61.38    320
61.4     368
61.42    406
61.44    476
61.46    512
61.48    530
61.5     551
61.52    476
61.54    475
61.56    445
61.58    405
61.6     392
61.62    378
61.64    415
61.66    424
61.68    498
61.7     585
61.72    577
61.74    673
61.76    749
61.78    799
61.8     899
61.82    1018
61.84    1110
61.86    1280
61.88    1389
61.9     1549
61.92    1817
61.94    2130
61.96    2563
61.98    3106
62.0     3865
62.02    4858
62.04    6102
62.06    7712
62.08    9384
62.1     11161
62.12    12786
62.14    13920
62.16    14472
62.18    14416
62.2     13767
62.22    12667
62.24    11395
62.26    10058
62.28    8688
62.3     7470
62.32    6430
62.34    5430
62.36    4492
62.38    3762
62.4     3092
62.42    2555
62.44    2132
62.46    1809
62.48    1482
62.5     1278
62.52    1177
62.54    1042
62.56    994
62.58    965
62.6     891
62.62    842
62.64    774
62.66    711
62.68    575
62.7     524
62.72    477
62.74    404
62.76    393
62.78    333
62.8     338
62.82    421
62.84    500
62.86    548
62.88    517
62.9     558
62.92    514
62.94    448
62.96    362
62.98    310
63.0     276
63.02    297
63.04    334
63.06    373
63.08    354
63.1     352
63.12    387
63.14    428
63.16    390
63.18    439
63.2     409
63.22    393
63.24    340
63.26    355
63.28    325
63.3     321
63.32    357
63.34    400
63.36    370
63.38    405
63.4     392
63.42    355
63.44    228
63.46    232
63.48    153
63.5     172
63.52    163
63.54    204
63.56    199
63.58    229
63.6     349
63.62    445
63.64    477
63.66    570
63.68    595
63.7     558
63.72    523
63.74    434
63.76    352
63.78    267
63.8     224
63.82    190
63.84    192
63.86    195
63.88    252
63.9     253
63.92    335
63.94    351
63.96    463
63.98    499
64.0     470
64.02    459
64.04    441
64.06    373
64.08    319
64.1     251
64.12    165
64.14    63
64.16    100
64.18    112
64.2     137
64.22    171
64.24    285
64.26    418
64.28    397
64.3     417
64.32    453
64.34    436
64.36    509
64.38    486
64.4     455
64.42    421
64.44    460
64.46    561
64.48    573
64.5     527
64.52    589
64.54    578
64.56    670
64.58    687
64.6     785
64.62    878
64.64    1016
64.66    1246
64.68    1482
64.7     1671
64.72    2054
64.74    2406
64.76    2859
64.78    3227
64.8     3593
64.82    3802
64.84    3878
64.86    3794
64.88    3627
64.9     3405
64.92    3125
64.94    2777
64.96    2498
64.98    2181
65.0     1895
65.02    1654
65.04    1445
65.06    1225
65.08    1082
65.1     962
65.12    868
65.14    726
65.16    657
65.18    530
65.2     460
65.22    447
65.24    486
65.26    482
65.28    509
65.3     460
65.32    519
65.34    435
65.36    400
65.38    307
65.4     288
65.42    297
65.44    349
65.46    331
65.48    340
65.5     307
65.52    383
65.54    355
65.56    341
65.58    326
65.6     301
65.62    363
65.64    355
65.66    305
65.68    301
65.7     273
65.72    262
65.74    262
65.76    272
65.78    316
65.8     285
65.82    332
65.84    352
65.86    327
65.88    351
65.9     326
65.92    330
65.94    316
65.96    275
65.98    287
66.0     282
66.02    301
66.04    333
66.06    251
66.08    220
66.1     152
66.12    118
66.14    75
66.16    102
66.18    198
66.2     269
66.22    334
66.24    383
66.26    422
66.28    501
66.3     478
66.32    432
66.34    379
66.36    323
66.38    250
66.4     140
66.42    100
66.44    130
66.46    176
66.48    254
66.5     273
66.52    284
66.54    314
66.56    261
66.58    282
66.6     279
66.62    299
66.64    371
66.66    325
66.68    291
66.7     218
66.72    140
66.74    126
66.76    76
66.78    83
66.8     120
66.82    129
66.84    242
66.86    262
66.88    323
66.9     316
66.92    313
66.94    314
66.96    325
66.98    266
67.0     250
67.02    239
67.04    240
67.06    241
67.08    240
67.1     171
67.12    137
67.14    130
67.16    157
67.18    191
67.2     220
67.22    303
67.24    294
67.26    334
67.28    315
67.3     308
67.32    375
67.34    389
67.36    366
67.38    344
67.4     277
67.42    285
67.44    231
67.46    207
67.48    230
67.5     290
67.52    346
67.54    359
67.56    305
67.58    312
67.6     299
67.62    315
67.64    342
67.66    343
67.68    346
67.7     336
67.72    326
67.74    286
67.76    253
67.78    241
67.8     226
67.82    203
67.84    210
67.86    196
67.88    203
67.9     225
67.92    254
67.94    268
67.96    351
67.98    329
68.0     300
68.02    313
68.04    295
68.06    272
68.08    243
68.1     247
68.12    225
68.14    245
68.16    278
68.18    246
68.2     217
68.22    224
68.24    227
68.26    209
68.28    212
68.3     262
68.32    277
68.34    321
68.36    361
68.38    354
68.4     380
68.42    406
68.44    475
68.46    490
68.48    500
68.5     489
68.52    452
68.54    398
68.56    381
68.58    421
68.6     451
68.62    500
68.64    523
68.66    580
68.68    628
68.7     652
68.72    674
68.74    713
68.76    812
68.78    960
68.8     1083
68.82    1358
68.84    1708
68.86    2065
68.88    2419
68.9     2757
68.92    3082
68.94    3354
68.96    3500
68.98    3580
69.0     3555
69.02    3431
69.04    3156
69.06    2764
69.08    2414
69.1     2070
69.12    1786
69.14    1570
69.16    1385
69.18    1212
69.2     1067
69.22    906
69.24    777
69.26    715
69.28    656
69.3     653
69.32    660
69.34    670
69.36    657
69.38    569
69.4     527
69.42    478
69.44    445
69.46    419
69.48    416
69.5     432
69.52    479
69.54    512
69.56    534
69.58    496
69.6     463
69.62    365
69.64    280
69.66    221
69.68    232
69.7     151
69.72    197
69.74    241
69.76    290
69.78    359
69.8     370
69.82    315
69.84    335
69.86    335
69.88    335
69.9     311
69.92    326
69.94    355
69.96    361
69.98    363
70.0     304
70.02    309
70.04    355
70.06    355
70.08    370
70.1     392
70.12    303
70.14    320
70.16    304
70.18    323
70.2     397
70.22    457
70.24    535
70.26    547
70.28    625
70.3     726
70.32    769
70.34    851
70.36    857
70.38    861
70.4     873
70.42    889
70.44    961
70.46    1017
70.48    1185
70.5     1351
70.52    1447
70.54    1551
70.56    1658
70.58    1742
70.6     1800
70.62    1848
70.64    1800
70.66    1662
70.68    1495
70.7     1300
70.72    1116
70.74    1000
70.76    884
70.78    783
70.8     721
70.82    645
70.84    599
70.86    557
70.88    517
70.9     497
70.92    457
70.94    380
70.96    307
70.98    228
71.0     217
71.02    206
71.04    246
71.06    242
71.08    223
71.1     228
71.12    256
71.14    303
71.16    326
71.18    337
71.2     347
71.22    385
71.24    395
71.26    407
71.28    421
71.3     426
71.32    432
71.34    452
71.36    430
71.38    380
71.4     281
71.42    267
71.44    285
71.46    306
71.48    228
71.5     207
71.52    194
71.54    209
71.56    187
71.58    207
71.6     258
71.62    304
71.64    368
71.66    419
71.68    417
71.7     495
71.72    542
71.74    477
71.76    420
71.78    403
71.8     353
71.82    303
71.84    319
71.86    359
71.88    334
71.9     467
71.92    476
71.94    495
71.96    500
71.98    500
72.0     481
72.02    530
72.04    551
72.06    505
72.08    431
72.1     481
72.12    434
72.14    464
72.16    488
72.18    540
72.2     583
72.22    656
72.24    721
72.26    791
72.28    842
72.3     897
72.32    986
72.34    1126
72.36    1284
72.38    1523
72.4     1813
72.42    2179
72.44    2612
72.46    3059
72.48    3486
72.5     3896
72.52    4254
72.54    4453
72.56    4495
72.58    4473
72.6     4278
72.62    3973
72.64    3670
72.66    3283
72.68    2932
72.7     2604
72.72    2236
72.74    1881
72.76    1670
72.78    1486
72.8     1315
72.82    1132
72.84    1008
72.86    860
72.88    748
72.9     608
72.92    459
72.94    452
72.96    489
72.98    483
73.0     493
73.02    476
73.04    483
73.06    538
73.08    550
73.1     539
73.12    473
73.14    509
73.16    472
73.18    411
73.2     397
73.22    379
73.24    388
73.26    398
73.28    406
73.3     379
73.32    392
73.34    500
73.36    629
73.38    761
73.4     908
73.42    974
73.44    1088
73.46    1110
73.48    1074
73.5     1005
73.52    1009
73.54    946
73.56    903
73.58    828
73.6     735
73.62    676
73.64    642
73.66    543
73.68    481
73.7     418
73.72    386
73.74    371
73.76    374
73.78    369
73.8     382
73.82    407
73.84    403
73.86    452
73.88    506
73.9     470
73.92    451
73.94    483
73.96    412
73.98    425
74.0     433
74.02    449
74.04    574
74.06    711
74.08    790
74.1     874
74.12    961
74.14    1105
74.16    1113
74.18    1298
74.2     1458
74.22    1648
74.24    1849
74.26    1913
74.28    1978
74.3     2046
74.32    2070
74.34    2005
74.36    1815
74.38    1742
74.4     1622
74.42    1431
74.44    1317
74.46    1175
74.48    1123
74.5     1097
74.52    1028
74.54    928
74.56    926
74.58    911
74.6     866
74.62    853
74.64    1020
74.66    1098
74.68    1183
74.7     1272
74.72    1340
74.74    1414
74.76    1551
74.78    1558
74.8     1631
74.82    1771
74.84    1925
74.86    1884
74.88    1834
74.9     1760
74.92    1684
74.94    1540
74.96    1444
74.98    1312
75.0     1264
75.02    1175
75.04    1053
75.06    860
75.08    811
75.1     716
75.12    688
75.14    634
75.16    602
75.18    617
75.2     603
75.22    587
75.24    553
75.26    511
75.28    568
75.3     501
75.32    479
75.34    380
75.36    279
75.38    295
75.4     249
75.42    342
75.44    337
75.46    334
75.48    385
75.5     383
75.52    383
75.54    328
75.56    376
75.58    401
75.6     382
75.62    425
75.64    330
75.66    267
75.68    250
75.7     176
75.72    170
75.74    163
75.76    277
75.78    266
75.8     253
75.82    268
75.84    257
75.86    284
75.88    301
75.9     303
75.92    362
75.94    346
75.96    372
75.98    312
76.0     196
76.02    205
76.04    189
76.06    211
76.08    184
76.1     208
76.12    226
76.14    208
76.16    249
76.18    280
76.2     245
76.22    361
76.24    363
76.26    404
76.28    373
76.3     338
76.32    295
76.34    264
76.36    292
76.38    277
76.4     310
76.42    363
76.44    324
76.46    323
76.48    344
76.5     319
76.52    314
76.54    384
76.56    419
76.58    409
76.6     439
76.62    353
76.64    292
76.66    334
76.68    360
76.7     310
76.72    300
76.74    404
76.76    403
76.78    364
76.8     311
76.82    254
76.84    305
76.86    405
76.88    379
76.9     318
76.92    297
76.94    342
76.96    294
76.98    258
77.0     244
77.02    283
77.04    421
77.06    484
77.08    505
77.1     548
77.12    598
77.14    633
77.16    637
77.18    709
77.2     789
77.22    782
77.24    839
77.26    773
77.28    766
77.3     863
77.32    924
77.34    1000
77.36    1139
77.38    1400
77.4     1600
77.42    1747
77.44    2052
77.46    2357
77.48    2742
77.5     3297
77.52    3740
77.54    4137
77.56    4533
77.58    4762
77.6     4744
77.62    4645
77.64    4509
77.66    4294
77.68    3948
77.7     3672
77.72    3256
77.74    2818
77.76    2476
77.78    2141
77.8     1806
77.82    1626
77.84    1526
77.86    1435
77.88    1308
77.9     1199
77.92    1073
77.94    940
77.96    901
77.98    890
78.0     835
78.02    813
78.04    809
78.06    747
78.08    652
78.1     556
78.12    425
78.14    350
78.16    338
78.18    291
78.2     205
78.22    195
78.24    238
78.26    243
78.28    222
78.3     241
78.32    240
78.34    308
78.36    362
78.38    367
78.4     349
78.42    465
78.44    553
78.46    574
78.48    534
78.5     539
78.52    538
78.54    479
78.56    378
78.58    288
78.6     226
78.62    249
78.64    265
78.66    173
78.68    90
78.7     96
78.72    138
78.74    124
78.76    139
78.78    178
78.8     240
78.82    344
78.84    402
78.86    383
78.88    366
78.9     422
78.92    474
78.94    397
78.96    379
78.98    335
79.0     328
79.02    309
79.04    306
79.06    301
79.08    317
79.1     334
79.12    377
79.14    262
79.16    237
79.18    208
79.2     173
79.22    126
79.24    149
79.26    212
79.28    253
79.3     248
79.32    309
79.34    287
79.36    296
79.38    332
79.4     338
79.42    301
79.44    320
79.46    331
79.48    288
79.5     238
79.52    226
79.54    212
79.56    200
79.58    182
79.6     205
79.62    172
79.64    214
79.66    186
79.68    189
79.7     207
79.72    195
79.74    165
79.76    207
79.78    195
79.8     247
79.82    302
79.84    303
79.86    375
79.88    476
79.9     624
79.92    612
79.94    658
79.96    714
79.98    729
80.0     676
80.02    644
80.04    591
80.06    549
80.08    509
80.1     424
80.12    297
80.14    226
80.16    245
80.18    295
80.2     292
80.22    349
80.24    406
80.26    341
80.28    292
80.3     218
80.32    187
80.34    115
80.36    226
80.38    312
80.4     300
80.42    308
80.44    278
80.46    277
80.48    241
80.5     251
80.52    248
80.54    210
80.56    290
80.58    326
80.6     254
80.62    209
80.64    185
80.66    235
80.68    248
80.7     314
80.72    350
80.74    317
80.76    342
80.78    336
80.8     291
80.82    280
80.84    305
80.86    329
80.88    322
80.9     316
80.92    287
80.94    178
80.96    115
80.98    131
81.0     155
81.02    240
81.04    317
81.06    348
81.08    342
81.1     292
81.12    247
81.14    240
81.16    213
81.18    312
81.2     337
81.22    353
81.24    299
81.26    295
81.28    236
81.3     233
81.32    234
81.34    338
81.36    300
81.38    339
81.4     294
81.42    224
81.44    169
81.46    177
81.48    174
81.5     285
81.52    279
81.54    261
81.56    162
81.58    156
81.6     100
81.62    53
81.64    66
81.66    98
81.68    185
81.7     272
81.72    276
81.74    254
81.76    271
81.78    340
81.8     341
81.82    346
81.84    387
81.86    409
81.88    433
81.9     403
81.92    369
81.94    347
81.96    364
81.98    327
82.0     250
82.02    220
82.04    190
82.06    126
82.08    127
82.1     108
82.12    120
82.14    165
82.16    197
82.18    188
82.2     181
82.22    198
82.24    208
82.26    213
82.28    292
82.3     350
82.32    351
82.34    329
82.36    295
82.38    269
82.4     189
82.42    151
82.44    98
82.46    148
82.48    198
82.5     178
82.52    178
82.54    194
82.56    226
82.58    267
82.6     238
82.62    262
82.64    183
82.66    193
82.68    211
82.7     178
82.72    197
82.74    263
82.76    348
82.78    348
82.8     347
82.82    300
82.84    222
82.86    237
82.88    266
82.9     252
82.92    225
82.94    204
82.96    175
82.98    146
83.0     40
83.02    38
83.04    70
83.06    137
83.08    183
83.1     169
83.12    118
83.14    112
83.16    153
83.18    275
83.2     251
83.22    360
83.24    487
83.26    513
83.28    480
83.3     341
83.32    202
83.34    161
83.36    167
83.38    193
83.4     191
83.42    192
83.44    168
83.46    167
83.48    132
83.5     147
83.52    146
83.54    182
83.56    281
83.58    255
83.6     310
83.62    239
83.64    143
83.66    136
83.68    187
83.7     260
83.72    294
83.74    342
83.76    365
83.78    327
83.8     364
83.82    307
83.84    301
83.86    284
83.88    291
83.9     265
83.92    234
83.94    194
83.96    203
83.98    184
84.0     218
84.02    243
84.04    280
84.06    189
84.08    200
84.1     175
84.12    179
84.14    218
84.16    213
84.18    249
84.2     297
84.22    319
84.24    342
84.26    317
84.28    373
84.3     340
84.32    421
84.34    455
84.36    374
84.38    409
84.4     351
84.42    363
84.44    353
84.46    326
84.48    297
84.5     256
84.52    313
84.54    247
84.56    164
84.58    115
84.6     106
84.62    180
84.64    236
84.66    327
84.68    438
84.7     430
84.72    447
84.74    450
84.76    455
84.78    397
84.8     478
84.82    559
84.84    613
84.86    624
84.88    566
84.9     396
84.92    361
84.94    331
84.96    324
84.98    306
85.0     396
85.02    430
85.04    405
85.06    301
85.08    135
85.1     1
85.12    0
85.14    0
85.16    103
85.18    194
85.2     269
85.22    295
85.24    319
85.26    310
85.28    261
85.3     235
85.32    251
85.34    289
85.36    354
85.38    364
85.4     334
85.42    270
85.44    230
85.46    243
85.48    281
85.5     319
85.52    309
85.54    388
85.56    405
85.58    407
85.6     397
85.62    294
85.64    228
85.66    208
85.68    217
85.7     281
85.72    282
85.74    315
85.76    281
85.78    259
85.8     248
85.82    231
85.84    246
85.86    238
85.88    294
85.9     438
85.92    448
85.94    404
85.96    396
85.98    413
86.0     383
86.02    419
86.04    379
86.06    362
86.08    349
86.1     395
86.12    382
86.14    352
86.16    418
86.18    460
86.2     430
86.22    465
86.24    444
86.26    484
86.28    432
86.3     510
86.32    596
86.34    640
86.36    767
86.38    822
86.4     925
86.42    999
86.44    1051
86.46    1075
86.48    1058
86.5     1062
86.52    1013
86.54    978
86.56    979
86.58    917
86.6     859
86.62    762
86.64    667
86.66    569
86.68    510
86.7     434
86.72    382
86.74    361
86.76    369
86.78    337
86.8     362
86.82    347
86.84    333
86.86    350
86.88    400
86.9     438
86.92    467
86.94    470
86.96    437
86.98    393
87.0     433
87.02    346
87.04    358
87.06    323
87.08    325
87.1     326
87.12    376
87.14    387
87.16    332
87.18    312
87.2     292
87.22    226
87.24    242
87.26    188
87.28    137
87.3     126
87.32    161
87.34    204
87.36    207
87.38    209
87.4     185
87.42    188
87.44    242
87.46    263
87.48    228
87.5     266
87.52    356
87.54    422
87.56    452
87.58    438
87.6     425
87.62    396
87.64    354
87.66    347
87.68    333
87.7     336
87.72    377
87.74    336
87.76    369
87.78    353
87.8     296
87.82    198
87.84    134
87.86    139
87.88    184
87.9     227
87.92    256
87.94    314
87.96    369
87.98    361
88.0     303
88.02    254
88.04    215
88.06    204
88.08    281
88.1     351
88.12    368
88.14    345
88.16    271
88.18    180
88.2     137
88.22    122
88.24    156
88.26    242
88.28    350
88.3     365
88.32    365
88.34    273
88.36    174
88.38    55
88.4     24
88.42    107
88.44    212
88.46    330
88.48    394
88.5     383
88.52    420
88.54    327
88.56    200
88.58    162
88.6     122
88.62    196
88.64    295
88.66    376
88.68    433
88.7     376
88.72    331
88.74    226
88.76    187
88.78    225
88.8     157
88.82    233
88.84    313
88.86    336
88.88    332
88.9     237
88.92    216
88.94    248
88.96    273
88.98    326
89.0     330
89.02    454
89.04    438
89.06    390
89.08    333
89.1     259
89.12    216
89.14    197
89.16    153
89.18    181
89.2     216
89.22    248
89.24    207
89.26    219
89.28    236
89.3     183
89.32    179
89.34    192
89.36    220
89.38    260
89.4     299
89.42    301
89.44    336
89.46    395
89.48    366
89.5     287
89.52    262
89.54    273
89.56    267
89.58    268
89.6     291
89.62    344
89.64    428
89.66    465
89.68    431
89.7     369
89.72    349
89.74    296
89.76    286
89.78    270
89.8     247
89.82    255
89.84    280
89.86    248
89.88    226
89.9     179
89.92    202
89.94    238
89.96    317
89.98    345
90.0     360
