?
5.0      728
5.02     728
5.04     944
5.06     864
5.08     948
5.1      965
5.12     992
5.14     1009
5.16     1005
5.18     964
5.2      962
5.22     927
5.24     935
5.26     942
5.28     968
5.3      981
5.32     1013
5.34     1029
5.36     1060
5.38     1067
5.4      1077
5.42     1053
5.44     1056
5.46     1054
5.48     1055
5.5      1074
5.52     1071
5.54     1079
5.56     1091
5.58     1095
5.6      1104
5.62     1085
5.64     1098
5.66     1107
5.68     1102
5.7      1117
5.72     1124
5.74     1154
5.76     1129
5.78     1167
5.8      1154
5.82     1120
5.84     1139
5.86     1120
5.88     1104
5.9      1078
5.92     1103
5.94     1162
5.96     1174
5.98     1197
6.0      1186
6.02     1211
6.04     1226
6.06     1217
6.08     1214
6.1      1139
6.12     1175
6.14     1176
6.16     1138
6.18     1115
6.2      1126
6.22     1137
6.24     1145
6.26     1178
6.28     1199
6.3      1188
6.32     1212
6.34     1206
6.36     1198
6.38     1164
6.4      1164
6.42     1181
6.44     1179
6.46     1171
6.48     1148
6.5      1168
6.52     1153
6.54     1170
6.56     1148
6.58     1166
6.6      1210
6.62     1249
6.64     1217
6.66     1206
6.68     1197
6.7      1230
6.72     1187
6.74     1222
6.76     1201
6.78     1259
6.8      1283
6.82     1269
6.84     1285
6.86     1307
6.88     1303
6.9      1307
6.92     1298
6.94     1308
6.96     1309
6.98     1300
7.0      1291
7.02     1261
7.04     1309
7.06     1330
7.08     1324
7.1      1357
7.12     1388
7.14     1362
7.16     1405
7.18     1359
7.2      1344
7.22     1301
7.24     1289
7.26     1315
7.28     1320
7.3      1328
7.32     1348
7.34     1324
7.36     1351
7.38     1359
7.4      1363
7.42     1313
7.44     1291
7.46     1358
7.48     1332
7.5      1341
7.52     1345
7.54     1353
7.56     1336
7.58     1340
7.6      1308
7.62     1315
7.64     1334
7.66     1375
7.68     1343
7.7      1372
7.72     1340
7.74     1384
7.76     1312
7.78     1324
7.8      1325
7.82     1334
7.84     1318
7.86     1368
7.88     1302
7.9      1288
7.92     1259
7.94     1288
7.96     1251
7.98     1348
8.0      1325
8.02     1314
8.04     1356
8.06     1443
8.08     1344
8.1      1357
8.12     1342
8.14     1340
8.16     1360
8.18     1374
8.2      1337
8.22     1302
8.24     1338
8.26     1337
8.28     1299
8.3      1307
8.32     1307
8.34     1312
8.36     1338
8.38     1345
8.4      1351
8.42     1286
8.44     1344
8.46     1305
8.48     1263
8.5      1260
8.52     1260
8.54     1303
8.56     1324
8.58     1331
8.6      1382
8.62     1392
8.64     1469
8.66     1402
8.68     1374
8.7      1338
8.72     1305
8.74     1284
8.76     1216
8.78     1186
8.8      1229
8.82     1208
8.84     1298
8.86     1296
8.88     1382
8.9      1363
8.92     1407
8.94     1446
8.96     1423
8.98     1430
9.0      1433
9.02     1427
9.04     1475
9.06     1448
9.08     1486
9.1      1363
9.12     1376
9.14     1351
9.16     1269
9.18     1217
9.2      1171
9.22     1196
9.24     1185
9.26     1214
9.28     1210
9.3      1125
9.32     1156
9.34     1183
9.36     1108
9.38     1105
9.4      1117
9.42     1140
9.44     1178
9.46     1204
9.48     1156
9.5      1194
9.52     1193
9.54     1198
9.56     1096
9.58     1102
9.6      1106
9.62     1088
9.64     1117
9.66     1117
9.68     1085
9.7      1121
9.72     1111
9.74     1130
9.76     1065
9.78     1044
9.8      1022
9.82     1017
9.84     1023
9.86     1012
9.88     989
9.9      992
9.92     1023
9.94     1077
9.96     1031
9.98     1010
10.0     1018
10.02    965
10.04    994
10.06    908
10.08    880
10.1     866
10.12    907
10.14    948
10.16    956
10.18    967
10.2     994
10.22    901
10.24    928
10.26    829
10.28    830
10.3     844
10.32    926
10.34    905
10.36    889
10.38    898
10.4     907
10.42    840
10.44    841
10.46    821
10.48    818
10.5     831
10.52    898
10.54    889
10.56    931
10.58    980
10.6     942
10.62    922
10.64    902
10.66    865
10.68    819
10.7     797
10.72    787
10.74    838
10.76    856
10.78    842
10.8     813
10.82    848
10.84    837
10.86    835
10.88    843
10.9     842
10.92    885
10.94    935
10.96    903
10.98    888
11.0     888
11.02    837
11.04    813
11.06    816
11.08    778
11.1     780
11.12    817
11.14    809
11.16    799
11.18    833
11.2     871
11.22    869
11.24    948
11.26    920
11.28    870
11.3     867
11.32    886
11.34    815
11.36    795
11.38    810
11.4     778
11.42    803
11.44    878
11.46    839
11.48    867
11.5     877
11.52    839
11.54    798
11.56    849
11.58    806
11.6     770
11.62    854
11.64    832
11.66    841
11.68    854
11.7     911
11.72    883
11.74    909
11.76    966
11.78    957
11.8     932
11.82    981
11.84    920
11.86    967
11.88    933
11.9     955
11.92    923
11.94    929
11.96    945
11.98    971
12.0     944
12.02    959
12.04    931
12.06    953
12.08    899
12.1     871
12.12    914
12.14    930
12.16    908
12.18    923
12.2     946
12.22    973
12.24    962
12.26    1019
12.28    992
12.3     969
12.32    981
12.34    974
12.36    900
12.38    898
12.4     901
12.42    959
12.44    887
12.46    869
12.48    912
12.5     942
12.52    963
12.54    1016
12.56    1049
12.58    1089
12.6     1094
12.62    1096
12.64    1008
12.66    985
12.68    1006
12.7     991
12.72    982
12.74    1021
12.76    1078
12.78    1082
12.8     1130
12.82    1102
12.84    1079
12.86    1065
12.88    1036
12.9     1008
12.92    1039
12.94    1078
12.96    1125
12.98    1150
13.0     1148
13.02    1103
13.04    1068
13.06    1074
13.08    1069
13.1     1011
13.12    1041
13.14    1086
13.16    1128
13.18    1139
13.2     1130
13.22    1127
13.24    1118
13.26    1138
13.28    1128
13.3     1110
13.32    1179
13.34    1231
13.36    1230
13.38    1260
13.4     1308
13.42    1283
13.44    1179
13.46    1181
13.48    1189
13.5     1199
13.52    1195
13.54    1180
13.56    1178
13.58    1220
13.6     1260
13.62    1249
13.64    1190
13.66    1265
13.68    1341
13.7     1323
13.72    1281
13.74    1299
13.76    1341
13.78    1331
13.8     1292
13.82    1283
13.84    1282
13.86    1315
13.88    1321
13.9     1284
13.92    1255
13.94    1252
13.96    1313
13.98    1306
14.0     1249
14.02    1279
14.04    1316
14.06    1328
14.08    1283
14.1     1335
14.12    1368
14.14    1373
14.16    1393
14.18    1333
14.2     1314
14.22    1344
14.24    1296
14.26    1239
14.28    1217
14.3     1283
14.32    1288
14.34    1312
14.36    1289
14.38    1268
14.4     1332
14.42    1314
14.44    1254
14.46    1261
14.48    1276
14.5     1318
14.52    1319
14.54    1352
14.56    1367
14.58    1375
14.6     1316
14.62    1261
14.64    1229
14.66    1259
14.68    1270
14.7     1335
14.72    1363
14.74    1395
14.76    1439
14.78    1457
14.8     1363
14.82    1405
14.84    1418
14.86    1386
14.88    1425
14.9     1557
14.92    1664
14.94    1652
14.96    1598
14.98    1534
15.0     1430
15.02    1413
15.04    1376
15.06    1266
15.08    1262
15.1     1317
15.12    1386
15.14    1339
15.16    1309
15.18    1336
15.2     1360
15.22    1347
15.24    1371
15.26    1371
15.28    1325
15.3     1267
15.32    1335
15.34    1310
15.36    1282
15.38    1282
15.4     1263
15.42    1185
15.44    1218
15.46    1239
15.48    1183
15.5     1188
15.52    1272
15.54    1289
15.56    1295
15.58    1279
15.6     1310
15.62    1341
15.64    1411
15.66    1370
15.68    1356
15.7     1419
15.72    1386
15.74    1395
15.76    1405
15.78    1410
15.8     1399
15.82    1447
15.84    1472
15.86    1430
15.88    1438
15.9     1519
15.92    1558
15.94    1593
15.96    1672
15.98    1790
16.0     1812
16.02    1936
16.04    2081
16.06    2099
16.08    2106
16.1     2207
16.12    2312
16.14    2376
16.16    2542
16.18    2768
16.2     2985
16.22    3308
16.24    3721
16.26    4165
16.28    4700
16.3     5457
16.32    6383
16.34    7478
16.36    8770
16.38    10381
16.4     12492
16.42    15225
16.44    18741
16.46    23577
16.48    30360
16.5     38931
16.52    47823
16.54    54734
16.56    57613
16.58    55754
16.6     49620
16.62    40162
16.64    29051
16.66    18553
16.68    10720
16.7     6197
16.72    4280
16.74    3604
16.76    3250
16.78    2953
16.8     2703
16.82    2516
16.84    2362
16.86    2222
16.88    2133
16.9     2071
16.92    1994
16.94    1877
16.96    1818
16.98    1774
17.0     1677
17.02    1679
17.04    1581
17.06    1548
17.08    1542
17.1     1573
17.12    1581
17.14    1533
17.16    1524
17.18    1506
17.2     1481
17.22    1492
17.24    1390
17.26    1306
17.28    1289
17.3     1322
17.32    1314
17.34    1291
17.36    1317
17.38    1305
17.4     1295
17.42    1336
17.44    1316
17.46    1215
17.48    1198
17.5     1191
17.52    1229
17.54    1242
17.56    1238
17.58    1194
17.6     1197
17.62    1217
17.64    1195
17.66    1130
17.68    1089
17.7     1074
17.72    1153
17.74    1180
17.76    1166
17.78    1127
17.8     1184
17.82    1178
17.84    1131
17.86    1066
17.88    1046
17.9     1078
17.92    1137
17.94    1128
17.96    1146
17.98    1138
18.0     1176
18.02    1177
18.04    1135
18.06    1107
18.08    1137
18.1     1168
18.12    1155
18.14    1127
18.16    1135
18.18    1119
18.2     1123
18.22    1106
18.24    1064
18.26    1092
18.28    1100
18.3     1084
18.32    1017
18.34    1063
18.36    1124
18.38    1111
18.4     1062
18.42    1033
18.44    1041
18.46    1127
18.48    1094
18.5     1042
18.52    976
18.54    991
18.56    998
18.58    988
18.6     995
18.62    1115
18.64    1197
18.66    1193
18.68    1182
18.7     1197
18.72    1166
18.74    1123
18.76    1089
18.78    1142
18.8     1146
18.82    1198
18.84    1183
18.86    1120
18.88    1135
18.9     1055
18.92    992
18.94    979
18.96    967
18.98    982
19.0     981
19.02    1072
19.04    1143
19.06    1146
19.08    1107
19.1     1049
19.12    1051
19.14    1107
19.16    1162
19.18    1167
19.2     1155
19.22    1159
19.24    1137
19.26    1058
19.28    1021
19.3     984
19.32    972
19.34    1028
19.36    1022
19.38    1016
19.4     1057
19.42    1102
19.44    1071
19.46    1051
19.48    1070
19.5     1067
19.52    1104
19.54    1104
19.56    1077
19.58    1088
19.6     1109
19.62    1095
19.64    1069
19.66    1082
19.68    1070
19.7     1084
19.72    1112
19.74    1035
19.76    981
19.78    981
19.8     953
19.82    988
19.84    1024
19.86    1053
19.88    1029
19.9     1052
19.92    1035
19.94    975
19.96    927
19.98    983
20.0     977
20.02    1013
20.04    1003
20.06    1019
20.08    1007
20.1     993
20.12    955
20.14    992
20.16    955
20.18    980
20.2     1023
20.22    1058
20.24    1054
20.26    1004
20.28    997
20.3     967
20.32    981
20.34    985
20.36    937
20.38    920
20.4     941
20.42    982
20.44    1009
20.46    1015
20.48    1029
20.5     1083
20.52    1109
20.54    1067
20.56    1016
20.58    955
20.6     938
20.62    967
20.64    984
20.66    950
20.68    875
20.7     962
20.72    1015
20.74    1029
20.76    974
20.78    978
20.8     963
20.82    944
20.84    957
20.86    931
20.88    948
20.9     1015
20.92    1036
20.94    1025
20.96    1000
20.98    1020
21.0     972
21.02    977
21.04    1007
21.06    1025
21.08    1005
21.1     956
21.12    902
21.14    860
21.16    818
21.18    828
21.2     864
21.22    972
21.24    965
21.26    974
21.28    953
21.3     996
21.32    977
21.34    928
21.36    872
21.38    853
21.4     926
21.42    1020
21.44    945
21.46    955
21.48    908
21.5     918
21.52    943
21.54    934
21.56    930
21.58    876
21.6     922
21.62    970
21.64    949
21.66    962
21.68    925
21.7     896
21.72    931
21.74    891
21.76    910
21.78    815
21.8     824
21.82    833
21.84    895
21.86    894
21.88    879
21.9     807
21.92    773
21.94    783
21.96    841
21.98    854
22.0     902
22.02    927
22.04    973
22.06    919
22.08    935
22.1     866
22.12    854
22.14    820
22.16    811
22.18    834
22.2     830
22.22    817
22.24    769
22.26    778
22.28    865
22.3     890
22.32    914
22.34    841
22.36    843
22.38    911
22.4     917
22.42    883
22.44    816
22.46    876
22.48    958
22.5     1009
22.52    983
22.54    956
22.56    943
22.58    982
22.6     934
22.62    905
22.64    860
22.66    873
22.68    819
22.7     785
22.72    765
22.74    787
22.76    770
22.78    782
22.8     788
22.82    793
22.84    827
22.86    809
22.88    769
22.9     752
22.92    819
22.94    891
22.96    905
22.98    887
23.0     874
23.02    850
23.04    885
23.06    868
23.08    830
23.1     807
23.12    822
23.14    862
23.16    880
23.18    888
23.2     847
23.22    808
23.24    766
23.26    756
23.28    767
23.3     771
23.32    733
23.34    754
23.36    833
23.38    868
23.4     861
23.42    823
23.44    797
23.46    794
23.48    843
23.5     863
23.52    831
23.54    827
23.56    835
23.58    864
23.6     861
23.62    777
23.64    730
23.66    710
23.68    762
23.7     729
23.72    735
23.74    729
23.76    794
23.78    850
23.8     838
23.82    793
23.84    830
23.86    870
23.88    919
23.9     851
23.92    850
23.94    844
23.96    906
23.98    867
24.0     778
24.02    710
24.04    758
24.06    798
24.08    842
24.1     840
24.12    797
24.14    765
24.16    720
24.18    728
24.2     686
24.22    734
24.24    776
24.26    802
24.28    751
24.3     750
24.32    681
24.34    642
24.36    658
24.38    751
24.4     806
24.42    836
24.44    838
24.46    750
24.48    704
24.5     686
24.52    711
24.54    689
24.56    729
24.58    688
24.6     699
24.62    670
24.64    737
24.66    695
24.68    774
24.7     782
24.72    861
24.74    788
24.76    851
24.78    768
24.8     818
24.82    782
24.84    782
24.86    653
24.88    651
24.9     626
24.92    685
24.94    668
24.96    796
24.98    783
25.0     904
25.02    827
25.04    793
25.06    689
25.08    703
25.1     698
25.12    693
25.14    629
25.16    664
25.18    698
25.2     779
25.22    788
25.24    833
25.26    798
25.28    760
25.3     720
25.32    673
25.34    625
25.36    687
25.38    748
25.4     749
25.42    749
25.44    726
25.46    684
25.48    637
25.5     691
25.52    812
25.54    877
25.56    883
25.58    859
25.6     770
25.62    697
25.64    713
25.66    677
25.68    670
25.7     676
25.72    690
25.74    673
25.76    612
25.78    620
25.8     623
25.82    675
25.84    788
25.86    826
25.88    810
25.9     725
25.92    680
25.94    708
25.96    718
25.98    714
26.0     719
26.02    717
26.04    722
26.06    706
26.08    652
26.1     593
26.12    606
26.14    692
26.16    781
26.18    783
26.2     775
26.22    709
26.24    711
26.26    655
26.28    608
26.3     544
26.32    581
26.34    613
26.36    685
26.38    754
26.4     772
26.42    754
26.44    788
26.46    722
26.48    648
26.5     626
26.52    700
26.54    750
26.56    858
26.58    930
26.6     896
26.62    827
26.64    778
26.66    668
26.68    635
26.7     709
26.72    783
26.74    795
26.76    775
26.78    701
26.8     663
26.82    597
26.84    582
26.86    533
26.88    631
26.9     704
26.92    743
26.94    728
26.96    704
26.98    719
27.0     695
27.02    613
27.04    597
27.06    611
27.08    638
27.1     655
27.12    672
27.14    666
27.16    624
27.18    623
27.2     578
27.22    569
27.24    626
27.26    670
27.28    627
27.3     619
27.32    632
27.34    617
27.36    615
27.38    595
27.4     613
27.42    620
27.44    573
27.46    537
27.48    494
27.5     521
27.52    621
27.54    663
27.56    690
27.58    616
27.6     594
27.62    594
27.64    553
27.66    576
27.68    571
27.7     600
27.72    661
27.74    621
27.76    622
27.78    613
27.8     665
27.82    724
27.84    768
27.86    795
27.88    766
27.9     749
27.92    711
27.94    666
27.96    666
27.98    643
28.0     647
28.02    610
28.04    645
28.06    599
28.08    625
28.1     664
28.12    650
28.14    646
28.16    613
28.18    593
28.2     588
28.22    528
28.24    580
28.26    609
28.28    723
28.3     784
28.32    778
28.34    805
28.36    747
28.38    656
28.4     551
28.42    452
28.44    510
28.46    570
28.48    586
28.5     637
28.52    726
28.54    793
28.56    767
28.58    709
28.6     650
28.62    638
28.64    686
28.66    672
28.68    609
28.7     616
28.72    652
28.74    671
28.76    702
28.78    689
28.8     715
28.82    778
28.84    804
28.86    838
28.88    827
28.9     807
28.92    765
28.94    698
28.96    639
28.98    555
29.0     560
29.02    542
29.04    563
29.06    567
29.08    505
29.1     518
29.12    549
29.14    561
29.16    628
29.18    629
29.2     692
29.22    745
29.24    779
29.26    660
29.28    555
29.3     566
29.32    579
29.34    612
29.36    681
29.38    646
29.4     665
29.42    693
29.44    683
29.46    629
29.48    617
29.5     647
29.52    661
29.54    660
29.56    678
29.58    640
29.6     614
29.62    662
29.64    706
29.66    759
29.68    748
29.7     698
29.72    621
29.74    557
29.76    523
29.78    474
29.8     487
29.82    532
29.84    528
29.86    642
29.88    585
29.9     631
29.92    657
29.94    732
29.96    773
29.98    762
30.0     756
30.02    661
30.04    571
30.06    613
30.08    555
30.1     638
30.12    667
30.14    767
30.16    777
30.18    760
30.2     764
30.22    660
30.24    603
30.26    622
30.28    612
30.3     654
30.32    671
30.34    670
30.36    660
30.38    678
30.4     651
30.42    579
30.44    523
30.46    497
30.48    553
30.5     570
30.52    590
30.54    578
30.56    566
30.58    554
30.6     532
30.62    548
30.64    559
30.66    549
30.68    611
30.7     560
30.72    496
30.74    487
30.76    439
30.78    498
30.8     460
30.82    505
30.84    568
30.86    550
30.88    620
30.9     618
30.92    554
30.94    579
30.96    573
30.98    613
31.0     563
31.02    603
31.04    641
31.06    682
31.08    727
31.1     707
31.12    643
31.14    589
31.16    552
31.18    604
31.2     594
31.22    635
31.24    661
31.26    630
31.28    604
31.3     561
31.32    609
31.34    600
31.36    608
31.38    692
31.4     619
31.42    594
31.44    590
31.46    491
31.48    535
31.5     531
31.52    552
31.54    555
31.56    592
31.58    668
31.6     732
31.62    811
31.64    864
31.66    780
31.68    769
31.7     622
31.72    520
31.74    495
31.76    517
31.78    592
31.8     692
31.82    729
31.84    680
31.86    573
31.88    542
31.9     415
31.92    507
31.94    560
31.96    606
31.98    649
32.0     627
32.02    628
32.04    594
32.06    575
32.08    597
32.1     522
32.12    603
32.14    622
32.16    668
32.18    728
32.2     740
32.22    763
32.24    743
32.26    726
32.28    723
32.3     654
32.32    644
32.34    636
32.36    660
32.38    711
32.4     725
32.42    719
32.44    707
32.46    704
32.48    744
32.5     707
32.52    649
32.54    620
32.56    620
32.58    611
32.6     576
32.62    548
32.64    597
32.66    656
32.68    744
32.7     778
32.72    795
32.74    817
32.76    840
32.78    776
32.8     762
32.82    741
32.84    840
32.86    915
32.88    960
32.9     904
32.92    840
32.94    715
32.96    694
32.98    638
33.0     669
33.02    708
33.04    815
33.06    861
33.08    899
33.1     840
33.12    782
33.14    724
33.16    778
33.18    838
33.2     980
33.22    1111
33.24    1157
33.26    1218
33.28    1298
33.3     1327
33.32    1397
33.34    1560
33.36    1840
33.38    2277
33.4     2889
33.42    3671
33.44    4764
33.46    6276
33.48    8178
33.5     10307
33.52    12263
33.54    13516
33.56    13849
33.58    13193
33.6     11618
33.62    9465
33.64    7165
33.66    5075
33.68    3493
33.7     2508
33.72    1935
33.74    1556
33.76    1359
33.78    1263
33.8     1173
33.82    1062
33.84    990
33.86    951
33.88    859
33.9     874
33.92    902
33.94    923
33.96    941
33.98    952
34.0     922
34.02    860
34.04    817
34.06    791
34.08    737
34.1     738
34.12    721
34.14    719
34.16    737
34.18    752
34.2     795
34.22    856
34.24    863
34.26    849
34.28    793
34.3     699
34.32    693
34.34    688
34.36    743
34.38    791
34.4     805
34.42    845
34.44    837
34.46    801
34.48    755
34.5     715
34.52    702
34.54    725
34.56    798
34.58    852
34.6     853
34.62    839
34.64    788
34.66    687
34.68    592
34.7     572
34.72    549
34.74    610
34.76    676
34.78    796
34.8     911
34.82    976
34.84    1037
34.86    1090
34.88    1124
34.9     1194
34.92    1279
34.94    1430
34.96    1675
34.98    2119
35.0     2865
35.02    4047
35.04    5896
35.06    8234
35.08    10633
35.1     12558
35.12    13528
35.14    13386
35.16    12203
35.18    10154
35.2     7631
35.22    5226
35.24    3407
35.26    2332
35.28    1743
35.3     1433
35.32    1218
35.34    1145
35.36    1169
35.38    1168
35.4     1067
35.42    1014
35.44    974
35.46    927
35.48    859
35.5     873
35.52    843
35.54    863
35.56    886
35.58    871
35.6     814
35.62    813
35.64    767
35.66    755
35.68    813
35.7     890
35.72    899
35.74    871
35.76    843
35.78    788
35.8     753
35.82    761
35.84    771
35.86    833
35.88    889
35.9     943
35.92    952
35.94    861
35.96    803
35.98    752
36.0     743
36.02    781
36.04    854
36.06    973
36.08    1097
36.1     1130
36.12    1213
36.14    1212
36.16    1203
36.18    1206
36.2     1292
36.22    1344
36.24    1570
36.26    1875
36.28    2230
36.3     2726
36.32    3498
36.34    4565
36.36    6187
36.38    8767
36.4     12487
36.42    17235
36.44    22255
36.46    26257
36.48    28367
36.5     28249
36.52    25809
36.54    21626
36.56    16389
36.58    11294
36.6     7197
36.62    4611
36.64    3103
36.66    2300
36.68    1893
36.7     1688
36.72    1644
36.74    1608
36.76    1479
36.78    1365
36.8     1250
36.82    1069
36.84    930
36.86    935
36.88    950
36.9     894
36.92    961
36.94    885
36.96    877
36.98    805
37.0     716
37.02    626
37.04    620
37.06    715
37.08    801
37.1     809
37.12    838
37.14    775
37.16    750
37.18    673
37.2     699
37.22    736
37.24    792
37.26    894
37.28    913
37.3     916
37.32    962
37.34    1045
37.36    1121
37.38    1202
37.4     1265
37.42    1187
37.44    1096
37.46    967
37.48    765
37.5     608
37.52    547
37.54    567
37.56    651
37.58    764
37.6     823
37.62    886
37.64    904
37.66    905
37.68    841
37.7     791
37.72    705
37.74    676
37.76    685
37.78    691
37.8     666
37.82    728
37.84    726
37.86    769
37.88    780
37.9     826
37.92    752
37.94    812
37.96    766
37.98    785
38.0     741
38.02    730
38.04    645
38.06    634
38.08    587
38.1     615
38.12    599
38.14    684
38.16    653
38.18    694
38.2     650
38.22    670
38.24    669
38.26    703
38.28    750
38.3     796
38.32    769
38.34    736
38.36    632
38.38    542
38.4     476
38.42    429
38.44    472
38.46    514
38.48    628
38.5     706
38.52    758
38.54    751
38.56    728
38.58    667
38.6     638
38.62    549
38.64    584
38.66    567
38.68    597
38.7     597
38.72    590
38.74    601
38.76    606
38.78    596
38.8     677
38.82    700
38.84    689
38.86    688
38.88    687
38.9     663
38.92    640
38.94    664
38.96    621
38.98    615
39.0     626
39.02    636
39.04    640
39.06    685
39.08    753
39.1     834
39.12    844
39.14    792
39.16    696
39.18    547
39.2     435
39.22    410
39.24    464
39.26    539
39.28    671
39.3     771
39.32    781
39.34    713
39.36    649
39.38    522
39.4     443
39.42    454
39.44    517
39.46    616
39.48    707
39.5     743
39.52    753
39.54    721
39.56    682
39.58    583
39.6     544
39.62    549
39.64    519
39.66    504
39.68    549
39.7     530
39.72    540
39.74    584
39.76    609
39.78    600
39.8     639
39.82    658
39.84    626
39.86    542
39.88    545
39.9     491
39.92    530
39.94    535
39.96    587
39.98    614
40.0     696
40.02    730
40.04    739
40.06    761
40.08    838
40.1     846
40.12    937
40.14    954
40.16    966
40.18    947
40.2     920
40.22    822
40.24    789
40.26    808
40.28    801
40.3     773
40.32    843
40.34    906
40.36    901
40.38    898
40.4     947
40.42    951
40.44    980
40.46    1020
40.48    1067
40.5     1047
40.52    992
40.54    973
40.56    934
40.58    829
40.6     808
40.62    819
40.64    904
40.66    957
40.68    1059
40.7     1122
40.72    1153
40.74    1212
40.76    1259
40.78    1214
40.8     1165
40.82    1122
40.84    1115
40.86    1061
40.88    1031
40.9     1106
40.92    1155
40.94    1225
40.96    1375
40.98    1512
41.0     1539
41.02    1536
41.04    1600
41.06    1615
41.08    1654
41.1     1776
41.12    1889
41.14    2025
41.16    2213
41.18    2453
41.2     2598
41.22    2859
41.24    3165
41.26    3606
41.28    4207
41.3     5080
41.32    6130
41.34    7471
41.36    9280
41.38    11777
41.4     15250
41.42    20639
41.44    28853
41.46    41152
41.48    57101
41.5     74671
41.52    89571
41.54    98642
41.56    99783
41.58    92810
41.6     79162
41.62    61682
41.64    43884
41.66    29144
41.68    19014
41.7     13122
41.72    9498
41.74    7190
41.76    5652
41.78    4652
41.8     4070
41.82    3735
41.84    3517
41.86    3274
41.88    3090
41.9     2820
41.92    2489
41.94    2162
41.96    1987
41.98    1793
42.0     1646
42.02    1538
42.04    1545
42.06    1532
42.08    1613
42.1     1560
42.12    1555
42.14    1451
42.16    1319
42.18    1195
42.2     1097
42.22    1127
42.24    1165
42.26    1230
42.28    1323
42.3     1354
42.32    1376
42.34    1264
42.36    1104
42.38    1013
42.4     923
42.42    943
42.44    866
42.46    975
42.48    991
42.5     1033
42.52    1035
42.54    1035
42.56    1035
42.58    1045
42.6     1040
42.62    976
42.64    900
42.66    905
42.68    828
42.7     796
42.72    841
42.74    916
42.76    1056
42.78    1103
42.8     1127
42.82    1044
42.84    1016
42.86    908
42.88    802
42.9     687
42.92    691
42.94    715
42.96    782
42.98    829
43.0     841
43.02    821
43.04    826
43.06    763
43.08    676
43.1     627
43.12    640
43.14    619
43.16    624
43.18    679
43.2     698
43.22    691
43.24    698
43.26    761
43.28    822
43.3     880
43.32    907
43.34    925
43.36    905
43.38    831
43.4     797
43.42    681
43.44    623
43.46    635
43.48    645
43.5     674
43.52    745
43.54    823
43.56    836
43.58    841
43.6     838
43.62    731
43.64    647
43.66    630
43.68    615
43.7     661
43.72    733
43.74    775
43.76    818
43.78    825
43.8     774
43.82    720
43.84    693
43.86    734
43.88    744
43.9     796
43.92    822
43.94    796
43.96    780
43.98    691
44.0     669
44.02    610
44.04    641
44.06    645
44.08    667
44.1     723
44.12    743
44.14    754
44.16    761
44.18    712
44.2     732
44.22    648
44.24    627
44.26    571
44.28    587
44.3     567
44.32    537
44.34    544
44.36    582
44.38    628
44.4     667
44.42    711
44.44    746
44.46    804
44.48    824
44.5     803
44.52    796
44.54    800
44.56    790
44.58    774
44.6     692
44.62    708
44.64    720
44.66    692
44.68    616
44.7     617
44.72    666
44.74    704
44.76    702
44.78    714
44.8     702
44.82    703
44.84    709
44.86    706
44.88    744
44.9     829
44.92    1035
44.94    1262
44.96    1521
44.98    1800
45.0     2092
45.02    2286
45.04    2316
45.06    2278
45.08    2083
45.1     1810
45.12    1514
45.14    1238
45.16    1033
45.18    889
45.2     826
45.22    762
45.24    718
45.26    721
45.28    670
45.3     684
45.32    711
45.34    787
45.36    753
45.38    773
45.4     791
45.42    758
45.44    770
45.46    720
45.48    654
45.5     611
45.52    574
45.54    558
45.56    508
45.58    602
45.6     680
45.62    710
45.64    805
45.66    825
45.68    799
45.7     713
45.72    604
45.74    577
45.76    546
45.78    553
45.8     524
45.82    497
45.84    546
45.86    504
45.88    543
45.9     509
45.92    503
45.94    541
45.96    577
45.98    678
46.0     690
46.02    701
46.04    736
46.06    747
46.08    769
46.1     621
46.12    530
46.14    444
46.16    448
46.18    400
46.2     387
46.22    464
46.24    508
46.26    599
46.28    645
46.3     660
46.32    659
46.34    625
46.36    638
46.38    533
46.4     548
46.42    565
46.44    596
46.46    666
46.48    681
46.5     673
46.52    618
46.54    544
46.56    483
46.58    398
46.6     346
46.62    311
46.64    417
46.66    434
46.68    464
46.7     535
46.72    585
46.74    639
46.76    632
46.78    644
46.8     648
46.82    642
46.84    705
46.86    682
46.88    728
46.9     743
46.92    677
46.94    606
46.96    530
46.98    517
47.0     501
47.02    414
47.04    414
47.06    448
47.08    538
47.1     609
47.12    643
47.14    705
47.16    760
47.18    762
47.2     737
47.22    612
47.24    536
47.26    516
47.28    528
47.3     590
47.32    600
47.34    649
47.36    668
47.38    682
47.4     616
47.42    524
47.44    482
47.46    411
47.48    432
47.5     388
47.52    394
47.54    474
47.56    558
47.58    642
47.6     615
47.62    680
47.64    713
47.66    631
47.68    582
47.7     479
47.72    494
47.74    473
47.76    461
47.78    486
47.8     520
47.82    619
47.84    672
47.86    668
47.88    628
47.9     683
47.92    736
47.94    692
47.96    637
47.98    644
48.0     701
48.02    742
48.04    727
48.06    696
48.08    681
48.1     705
48.12    664
48.14    591
48.16    507
48.18    496
48.2     486
48.22    451
48.24    378
48.26    396
48.28    438
48.3     476
48.32    456
48.34    474
48.36    458
48.38    508
48.4     543
48.42    520
48.44    496
48.46    590
48.48    659
48.5     745
48.52    701
48.54    700
48.56    691
48.58    747
48.6     747
48.62    648
48.64    622
48.66    658
48.68    649
48.7     602
48.72    493
48.74    476
48.76    501
48.78    482
48.8     484
48.82    510
48.84    582
48.86    599
48.88    552
48.9     493
48.92    473
48.94    445
48.96    441
48.98    388
49.0     443
49.02    529
49.04    570
49.06    589
49.08    600
49.1     607
49.12    609
49.14    583
49.16    528
49.18    487
49.2     445
49.22    445
49.24    478
49.26    526
49.28    530
49.3     546
49.32    579
49.34    654
49.36    598
49.38    526
49.4     501
49.42    486
49.44    498
49.46    448
49.48    428
49.5     455
49.52    545
49.54    594
49.56    531
49.58    527
49.6     624
49.62    632
49.64    625
49.66    614
49.68    600
49.7     622
49.72    664
49.74    611
49.76    557
49.78    509
49.8     489
49.82    484
49.84    471
49.86    517
49.88    529
49.9     589
49.92    710
49.94    672
49.96    607
49.98    501
50.0     421
50.02    393
50.04    344
50.06    358
50.08    370
50.1     451
50.12    545
50.14    566
50.16    614
50.18    668
50.2     727
50.22    734
50.24    690
50.26    654
50.28    597
50.3     539
50.32    401
50.34    363
50.36    315
50.38    289
50.4     307
50.42    339
50.44    328
50.46    447
50.48    540
50.5     585
50.52    640
50.54    673
50.56    651
50.58    583
50.6     483
50.62    474
50.64    378
50.66    382
50.68    448
50.7     489
50.72    618
50.74    660
50.76    673
50.78    675
50.8     600
50.82    555
50.84    418
50.86    360
50.88    377
50.9     354
50.92    458
50.94    504
50.96    597
50.98    676
51.0     639
51.02    553
51.04    495
51.06    427
51.08    379
51.1     298
51.12    359
51.14    406
51.16    473
51.18    519
51.2     515
51.22    553
51.24    599
51.26    602
51.28    622
51.3     651
51.32    712
51.34    661
51.36    619
51.38    563
51.4     564
51.42    539
51.44    516
51.46    463
51.48    514
51.5     541
51.52    541
51.54    530
51.56    565
51.58    524
51.6     539
51.62    463
51.64    476
51.66    423
51.68    451
51.7     467
51.72    465
51.74    574
51.76    607
51.78    600
51.8     604
51.82    575
51.84    618
51.86    643
51.88    576
51.9     609
51.92    538
51.94    645
51.96    654
51.98    630
52.0     573
52.02    568
52.04    573
52.06    647
52.08    549
52.1     561
52.12    575
52.14    630
52.16    659
52.18    698
52.2     665
52.22    694
52.24    692
52.26    689
52.28    656
52.3     723
52.32    677
52.34    682
52.36    705
52.38    690
52.4     680
52.42    646
52.44    560
52.46    548
52.48    579
52.5     608
52.52    578
52.54    585
52.56    617
52.58    656
52.6     677
52.62    601
52.64    545
52.66    526
52.68    524
52.7     517
52.72    489
52.74    472
52.76    582
52.78    615
52.8     600
52.82    604
52.84    669
52.86    737
52.88    797
52.9     732
52.92    712
52.94    748
52.96    757
52.98    683
53.0     636
53.02    609
53.04    653
53.06    693
53.08    647
53.1     670
53.12    739
53.14    894
53.16    1032
53.18    1141
53.2     1236
53.22    1380
53.24    1449
53.26    1593
53.28    1669
53.3     1886
53.32    2190
53.34    2808
53.36    3562
53.38    4666
53.4     5940
53.42    7241
53.44    8233
53.46    8869
53.48    8803
53.5     8206
53.52    7167
53.54    5922
53.56    4568
53.58    3503
53.6     2694
53.62    2170
53.64    1860
53.66    1660
53.68    1501
53.7     1433
53.72    1369
53.74    1313
53.76    1231
53.78    1131
53.8     1062
53.82    979
53.84    862
53.86    744
53.88    733
53.9     697
53.92    640
53.94    611
53.96    573
53.98    543
54.0     536
54.02    507
54.04    455
54.06    552
54.08    658
54.1     671
54.12    673
54.14    619
54.16    581
54.18    621
54.2     539
54.22    521
54.24    490
54.26    580
54.28    580
54.3     517
54.32    497
54.34    497
54.36    588
54.38    655
54.4     594
54.42    609
54.44    668
54.46    702
54.48    623
54.5     504
54.52    508
54.54    528
54.56    570
54.58    557
54.6     503
54.62    487
54.64    576
54.66    549
54.68    486
54.7     425
54.72    446
54.74    445
54.76    484
54.78    434
54.8     436
54.82    457
54.84    507
54.86    575
54.88    556
54.9     538
54.92    602
54.94    604
54.96    580
54.98    451
55.0     439
55.02    417
55.04    444
55.06    472
55.08    451
55.1     494
55.12    622
55.14    647
55.16    667
55.18    619
55.2     591
55.22    544
55.24    532
55.26    459
55.28    410
55.3     370
55.32    382
55.34    380
55.36    459
55.38    507
55.4     469
55.42    494
55.44    549
55.46    573
55.48    594
55.5     596
55.52    583
55.54    571
55.56    621
55.58    612
55.6     502
55.62    510
55.64    548
55.66    589
55.68    610
55.7     595
55.72    566
55.74    519
55.76    532
55.78    511
55.8     498
55.82    504
55.84    485
55.86    511
55.88    525
55.9     549
55.92    532
55.94    504
55.96    530
55.98    596
56.0     628
56.02    584
56.04    565
56.06    579
56.08    581
56.1     581
56.12    500
56.14    473
56.16    475
56.18    499
56.2     486
56.22    451
56.24    475
56.26    470
56.28    486
56.3     498
56.32    496
56.34    608
56.36    667
56.38    686
56.4     701
56.42    699
56.44    723
56.46    662
56.48    638
56.5     588
56.52    566
56.54    612
56.56    629
56.58    644
56.6     625
56.62    656
56.64    632
56.66    594
56.68    553
56.7     482
56.72    426
56.74    425
56.76    479
56.78    524
56.8     530
56.82    620
56.84    652
56.86    755
56.88    782
56.9     818
56.92    785
56.94    797
56.96    754
56.98    731
57.0     623
57.02    549
57.04    486
57.06    452
57.08    453
57.1     506
57.12    514
57.14    538
57.16    577
57.18    651
57.2     627
57.22    644
57.24    661
57.26    623
57.28    625
57.3     681
57.32    678
57.34    660
57.36    708
57.38    669
57.4     681
57.42    717
57.44    736
57.46    676
57.48    662
57.5     735
57.52    764
57.54    788
57.56    775
57.58    773
57.6     780
57.62    800
57.64    806
57.66    758
57.68    750
57.7     829
57.72    894
57.74    923
57.76    965
57.78    968
57.8     934
57.82    984
57.84    1001
57.86    1020
57.88    1083
57.9     1230
57.92    1370
57.94    1534
57.96    1625
57.98    1719
58.0     1894
58.02    2197
58.04    2472
58.06    2812
58.08    3324
58.1     3892
58.12    4689
58.14    5785
58.16    7168
58.18    9110
58.2     11625
58.22    14471
58.24    16970
58.26    18931
58.28    19796
58.3     19300
58.32    17776
58.34    15435
58.36    12651
58.38    9947
58.4     7670
58.42    5971
58.44    4707
58.46    3942
58.48    3274
58.5     2689
58.52    2293
58.54    2028
58.56    1877
58.58    1677
58.6     1497
58.62    1384
58.64    1339
58.66    1349
58.68    1322
58.7     1195
58.72    1078
58.74    1016
58.76    980
58.78    926
58.8     895
58.82    774
58.84    756
58.86    728
58.88    782
58.9     755
58.92    724
58.94    696
58.96    656
58.98    731
59.0     726
59.02    627
59.04    576
59.06    557
59.08    623
59.1     606
59.12    661
59.14    586
59.16    596
59.18    669
59.2     683
59.22    639
59.24    609
59.26    632
59.28    659
59.3     702
59.32    739
59.34    676
59.36    666
59.38    686
59.4     716
59.42    667
59.44    589
59.46    547
59.48    519
59.5     538
59.52    554
59.54    556
59.56    526
59.58    566
59.6     620
59.62    562
59.64    551
59.66    520
59.68    507
59.7     542
59.72    552
59.74    582
59.76    576
59.78    601
59.8     605
59.82    638
59.84    731
59.86    684
59.88    659
59.9     623
59.92    525
59.94    434
59.96    429
59.98    405
60.0     377
60.02    456
60.04    513
60.06    547
60.08    595
60.1     593
60.12    534
60.14    538
60.16    685
60.18    712
60.2     720
60.22    691
60.24    657
60.26    669
60.28    650
60.3     590
60.32    573
60.34    563
60.36    575
60.38    586
60.4     581
60.42    567
60.44    520
60.46    553
60.48    535
60.5     531
60.52    540
60.54    477
60.56    468
60.58    534
60.6     568
60.62    601
60.64    589
60.66    625
60.68    595
60.7     625
60.72    592
60.74    572
60.76    581
60.78    605
60.8     610
60.82    563
60.84    564
60.86    554
60.88    544
60.9     535
60.92    480
60.94    524
60.96    556
60.98    592
61.0     600
61.02    566
61.04    548
61.06    489
61.08    497
61.1     448
61.12    406
61.14    437
61.16    468
61.18    577
61.2     638
61.22    684
61.24    672
61.26    682
61.28    736
61.3     732
61.32    701
61.34    621
61.36    598
61.38    624
61.4     557
61.42    554
61.44    561
61.46    586
61.48    623
61.5     674
61.52    649
61.54    553
61.56    590
61.58    606
61.6     592
61.62    575
61.64    613
61.66    663
61.68    771
61.7     834
61.72    856
61.74    857
61.76    928
61.78    993
61.8     1035
61.82    1017
61.84    1098
61.86    1210
61.88    1359
61.9     1489
61.92    1703
61.94    1941
61.96    2315
61.98    2860
62.0     3732
62.02    4917
62.04    6587
62.06    8822
62.08    11505
62.1     14366
62.12    17115
62.14    19112
62.16    20104
62.18    19843
62.2     18490
62.22    16269
62.24    13515
62.26    10750
62.28    8357
62.3     6438
62.32    5014
62.34    3928
62.36    3231
62.38    2669
62.4     2321
62.42    2070
62.44    1807
62.46    1619
62.48    1552
62.5     1503
62.52    1368
62.54    1237
62.56    1080
62.58    902
62.6     814
62.62    683
62.64    604
62.66    537
62.68    577
62.7     628
62.72    690
62.74    730
62.76    718
62.78    683
62.8     710
62.82    728
62.84    692
62.86    631
62.88    596
62.9     548
62.92    549
62.94    558
62.96    589
62.98    532
63.0     541
63.02    586
63.04    620
63.06    619
63.08    588
63.1     557
63.12    510
63.14    459
63.16    525
63.18    490
63.2     455
63.22    480
63.24    572
63.26    529
63.28    529
63.3     527
63.32    513
63.34    480
63.36    503
63.38    549
63.4     527
63.42    499
63.44    507
63.46    419
63.48    440
63.5     441
63.52    473
63.54    466
63.56    487
63.58    607
63.6     620
63.62    625
63.64    647
63.66    617
63.68    645
63.7     646
63.72    672
63.74    632
63.76    586
63.78    584
63.8     550
63.82    469
63.84    452
63.86    400
63.88    398
63.9     372
63.92    441
63.94    422
63.96    427
63.98    469
64.0     488
64.02    456
64.04    498
64.06    508
64.08    527
64.1     467
64.12    553
64.14    581
64.16    658
64.18    690
64.2     699
64.22    699
64.24    665
64.26    597
64.28    554
64.3     406
64.32    433
64.34    423
64.36    445
64.38    464
64.4     502
64.42    550
64.44    570
64.46    607
64.48    689
64.5     704
64.52    792
64.54    848
64.56    941
64.58    960
64.6     1047
64.62    1131
64.64    1254
64.66    1381
64.68    1559
64.7     1853
64.72    2261
64.74    2814
64.76    3578
64.78    4247
64.8     4904
64.82    5367
64.84    5554
64.86    5476
64.88    5110
64.9     4512
64.92    3806
64.94    3095
64.96    2548
64.98    2013
65.0     1602
65.02    1391
65.04    1216
65.06    1099
65.08    1009
65.1     893
65.12    860
65.14    800
65.16    741
65.18    653
65.2     648
65.22    676
65.24    618
65.26    534
65.28    552
65.3     473
65.32    492
65.34    482
65.36    507
65.38    558
65.4     635
65.42    684
65.44    708
65.46    697
65.48    696
65.5     648
65.52    652
65.54    590
65.56    521
65.58    486
65.6     455
65.62    431
65.64    381
65.66    300
65.68    248
65.7     282
65.72    314
65.74    326
65.76    335
65.78    425
65.8     487
65.82    559
65.84    603
65.86    575
65.88    556
65.9     532
65.92    487
65.94    506
65.96    472
65.98    485
66.0     403
66.02    412
66.04    412
66.06    391
66.08    423
66.1     499
66.12    507
66.14    575
66.16    564
66.18    655
66.2     658
66.22    653
66.24    587
66.26    517
66.28    516
66.3     520
66.32    459
66.34    445
66.36    396
66.38    379
66.4     379
66.42    375
66.44    359
66.46    397
66.48    475
66.5     489
66.52    553
66.54    538
66.56    548
66.58    475
66.6     487
66.62    510
66.64    504
66.66    469
66.68    497
66.7     421
66.72    388
66.74    346
66.76    405
66.78    416
66.8     483
66.82    565
66.84    631
66.86    585
66.88    690
66.9     626
66.92    589
66.94    548
66.96    533
66.98    467
67.0     385
67.02    333
67.04    354
67.06    303
67.08    336
67.1     363
67.12    394
67.14    404
67.16    499
67.18    515
67.2     514
67.22    552
67.24    621
67.26    669
67.28    652
67.3     651
67.32    588
67.34    605
67.36    630
67.38    575
67.4     516
67.42    504
67.44    451
67.46    414
67.48    344
67.5     302
67.52    362
67.54    450
67.56    521
67.58    593
67.6     631
67.62    681
67.64    710
67.66    635
67.68    576
67.7     472
67.72    423
67.74    379
67.76    398
67.78    392
67.8     342
67.82    341
67.84    350
67.86    331
67.88    372
67.9     433
67.92    449
67.94    481
67.96    534
67.98    528
68.0     517
68.02    499
68.04    562
68.06    583
68.08    610
68.1     624
68.12    633
68.14    615
68.16    595
68.18    566
68.2     517
68.22    474
68.24    497
68.26    481
68.28    489
68.3     501
68.32    608
68.34    651
68.36    685
68.38    696
68.4     682
68.42    641
68.44    637
68.46    567
68.48    502
68.5     483
68.52    511
68.54    538
68.56    580
68.58    618
68.6     702
68.62    721
68.64    720
68.66    665
68.68    714
68.7     811
68.72    904
68.74    998
68.76    1111
68.78    1204
68.8     1325
68.82    1451
68.84    1681
68.86    2076
68.88    2566
68.9     3197
68.92    3813
68.94    4353
68.96    4802
68.98    4983
69.0     4944
69.02    4634
69.04    4183
69.06    3631
69.08    3059
69.1     2523
69.12    2055
69.14    1650
69.16    1439
69.18    1259
69.2     1148
69.22    1057
69.24    999
69.26    943
69.28    921
69.3     842
69.32    803
69.34    728
69.36    718
69.38    714
69.4     705
69.42    677
69.44    629
69.46    579
69.48    575
69.5     566
69.52    519
69.54    506
69.56    494
69.58    461
69.6     434
69.62    426
69.64    437
69.66    492
69.68    560
69.7     591
69.72    539
69.74    573
69.76    540
69.78    479
69.8     492
69.82    519
69.84    541
69.86    607
69.88    587
69.9     570
69.92    565
69.94    564
69.96    528
69.98    501
70.0     509
70.02    498
70.04    515
70.06    564
70.08    573
70.1     612
70.12    631
70.14    665
70.16    712
70.18    736
70.2     704
70.22    706
70.24    680
70.26    663
70.28    653
70.3     586
70.32    587
70.34    627
70.36    651
70.38    681
70.4     695
70.42    776
70.44    1007
70.46    1230
70.48    1452
70.5     1699
70.52    2010
70.54    2206
70.56    2376
70.58    2462
70.6     2444
70.62    2356
70.64    2281
70.66    2044
70.68    1813
70.7     1616
70.72    1395
70.74    1202
70.76    1081
70.78    945
70.8     818
70.82    690
70.84    611
70.86    551
70.88    469
70.9     433
70.92    416
70.94    448
70.96    495
70.98    505
71.0     591
71.02    629
71.04    687
71.06    708
71.08    676
71.1     673
71.12    665
71.14    612
71.16    528
71.18    487
71.2     475
71.22    454
71.24    393
71.26    353
71.28    354
71.3     371
71.32    441
71.34    438
71.36    429
71.38    465
71.4     499
71.42    510
71.44    495
71.46    526
71.48    549
71.5     558
71.52    590
71.54    510
71.56    450
71.58    475
71.6     471
71.62    470
71.64    554
71.66    566
71.68    583
71.7     586
71.72    601
71.74    506
71.76    464
71.78    475
71.8     450
71.82    486
71.84    517
71.86    517
71.88    574
71.9     591
71.92    595
71.94    554
71.96    497
71.98    479
72.0     518
72.02    489
72.04    470
72.06    524
72.08    613
72.1     665
72.12    719
72.14    794
72.16    797
72.18    841
72.2     820
72.22    763
72.24    812
72.26    844
72.28    859
72.3     930
72.32    1033
72.34    1168
72.36    1385
72.38    1635
72.4     1992
72.42    2468
72.44    3026
72.46    3696
72.48    4434
72.5     5238
72.52    5861
72.54    6245
72.56    6375
72.58    6084
72.6     5664
72.62    4929
72.64    4163
72.66    3506
72.68    2878
72.7     2420
72.72    2014
72.74    1718
72.76    1514
72.78    1308
72.8     1255
72.82    1104
72.84    1088
72.86    1001
72.88    901
72.9     872
72.92    829
72.94    789
72.96    804
72.98    743
73.0     709
73.02    593
73.04    563
73.06    490
73.08    506
73.1     554
73.12    533
73.14    523
73.16    528
73.18    543
73.2     551
73.22    543
73.24    670
73.26    757
73.28    809
73.3     814
73.32    761
73.34    787
73.36    824
73.38    901
73.4     959
73.42    1022
73.44    1141
73.46    1186
73.48    1176
73.5     1106
73.52    1046
73.54    1025
73.56    1006
73.58    908
73.6     820
73.62    777
73.64    748
73.66    718
73.68    773
73.7     786
73.72    790
73.74    833
73.76    827
73.78    780
73.8     799
73.82    773
73.84    673
73.86    605
73.88    640
73.9     620
73.92    547
73.94    567
73.96    498
73.98    506
74.0     530
74.02    437
74.04    462
74.06    495
74.08    618
74.1     739
74.12    894
74.14    1072
74.16    1206
74.18    1488
74.2     1832
74.22    2108
74.24    2458
74.26    2662
74.28    2858
74.3     2886
74.32    2789
74.34    2565
74.36    2334
74.38    2177
74.4     1949
74.42    1645
74.44    1450
74.46    1265
74.48    1141
74.5     981
74.52    905
74.54    911
74.56    1008
74.58    1042
74.6     1007
74.62    1029
74.64    1067
74.66    1061
74.68    1106
74.7     1164
74.72    1369
74.74    1589
74.76    1812
74.78    2008
74.8     2269
74.82    2482
74.84    2568
74.86    2642
74.88    2644
74.9     2512
74.92    2355
74.94    2074
74.96    1767
74.98    1512
75.0     1371
75.02    1167
75.04    1089
75.06    1068
75.08    1030
75.1     976
75.12    953
75.14    892
75.16    867
75.18    842
75.2     784
75.22    675
75.24    659
75.26    548
75.28    539
75.3     443
75.32    419
75.34    454
75.36    482
75.38    476
75.4     433
75.42    385
75.44    359
75.46    306
75.48    336
75.5     181
75.52    232
75.54    318
75.56    344
75.58    421
75.6     468
75.62    534
75.64    629
75.66    701
75.68    712
75.7     606
75.72    700
75.74    666
75.76    619
75.78    561
75.8     492
75.82    475
75.84    452
75.86    403
75.88    346
75.9     341
75.92    421
75.94    420
75.96    458
75.98    474
76.0     496
76.02    466
76.04    482
76.06    468
76.08    472
76.1     528
76.12    556
76.14    532
76.16    579
76.18    568
76.2     545
76.22    489
76.24    469
76.26    414
76.28    388
76.3     409
76.32    345
76.34    333
76.36    369
76.38    398
76.4     404
76.42    420
76.44    468
76.46    483
76.48    455
76.5     432
76.52    362
76.54    381
76.56    332
76.58    365
76.6     335
76.62    429
76.64    500
76.66    508
76.68    460
76.7     471
76.72    493
76.74    491
76.76    446
76.78    459
76.8     461
76.82    516
76.84    467
76.86    430
76.88    412
76.9     437
76.92    490
76.94    457
76.96    432
76.98    420
77.0     447
77.02    476
77.04    439
77.06    483
77.08    532
77.1     536
77.12    591
77.14    597
77.16    626
77.18    681
77.2     771
77.22    837
77.24    842
77.26    911
77.28    916
77.3     893
77.32    995
77.34    1079
77.36    1208
77.38    1366
77.4     1610
77.42    1965
77.44    2315
77.46    2824
77.48    3378
77.5     4055
77.52    4849
77.54    5580
77.56    6126
77.58    6537
77.6     6701
77.62    6611
77.64    6194
77.66    5626
77.68    4924
77.7     4239
77.72    3647
77.74    3082
77.76    2520
77.78    2149
77.8     1816
77.82    1552
77.84    1275
77.86    1062
77.88    945
77.9     905
77.92    855
77.94    784
77.96    644
77.98    594
78.0     571
78.02    495
78.04    411
78.06    481
78.08    545
78.1     630
78.12    628
78.14    600
78.16    515
78.18    530
78.2     473
78.22    378
78.24    310
78.26    354
78.28    378
78.3     377
78.32    423
78.34    428
78.36    443
78.38    490
78.4     501
78.42    455
78.44    432
78.46    474
78.48    519
78.5     482
78.52    535
78.54    464
78.56    369
78.58    378
78.6     374
78.62    352
78.64    362
78.66    368
78.68    359
78.7     378
78.72    408
78.74    423
78.76    426
78.78    467
78.8     482
78.82    512
78.84    530
78.86    482
78.88    486
78.9     504
78.92    445
78.94    455
78.96    427
78.98    367
79.0     344
79.02    353
79.04    383
79.06    368
79.08    427
79.1     403
79.12    393
79.14    442
79.16    473
79.18    484
79.2     471
79.22    467
79.24    396
79.26    380
79.28    347
79.3     284
79.32    288
79.34    314
79.36    364
79.38    403
79.4     374
79.42    343
79.44    296
79.46    323
79.48    333
79.5     293
79.52    335
79.54    371
79.56    401
79.58    358
79.6     364
79.62    412
79.64    535
79.66    577
79.68    614
79.7     567
79.72    577
79.74    539
79.76    482
79.78    398
79.8     407
79.82    475
79.84    539
79.86    477
79.88    376
79.9     330
79.92    376
79.94    389
79.96    399
79.98    478
80.0     523
80.02    660
80.04    661
80.06    597
80.08    544
80.1     568
80.12    649
80.14    585
80.16    530
80.18    603
80.2     528
80.22    571
80.24    549
80.26    497
80.28    506
80.3     518
80.32    581
80.34    483
80.36    416
80.38    424
80.4     331
80.42    303
80.44    321
80.46    302
80.48    296
80.5     344
80.52    358
80.54    309
80.56    275
80.58    295
80.6     337
80.62    360
80.64    410
80.66    455
80.68    485
80.7     487
80.72    423
80.74    405
80.76    382
80.78    403
80.8     479
80.82    455
80.84    365
80.86    358
80.88    366
80.9     256
80.92    196
80.94    239
80.96    245
80.98    271
81.0     316
81.02    234
81.04    196
81.06    219
81.08    302
81.1     261
81.12    294
81.14    334
81.16    328
81.18    348
81.2     349
81.22    364
81.24    386
81.26    435
81.28    437
81.3     425
81.32    388
81.34    309
81.36    304
81.38    313
81.4     333
81.42    358
81.44    366
81.46    383
81.48    352
81.5     375
81.52    341
81.54    246
81.56    263
81.58    272
81.6     282
81.62    289
81.64    283
81.66    333
81.68    403
81.7     409
81.72    417
81.74    338
81.76    351
81.78    351
81.8     369
81.82    335
81.84    299
81.86    341
81.88    362
81.9     356
81.92    365
81.94    326
81.96    388
81.98    406
82.0     389
82.02    326
82.04    302
82.06    262
82.08    253
82.1     278
82.12    242
82.14    239
82.16    308
82.18    329
82.2     321
82.22    337
82.24    375
82.26    381
82.28    438
82.3     436
82.32    344
82.34    332
82.36    330
82.38    316
82.4     295
82.42    328
82.44    361
82.46    372
82.48    377
82.5     289
82.52    255
82.54    242
82.56    263
82.58    256
82.6     270
82.62    377
82.64    416
82.66    430
82.68    429
82.7     431
82.72    487
82.74    452
82.76    473
82.78    405
82.8     385
82.82    356
82.84    294
82.86    247
82.88    199
82.9     196
82.92    216
82.94    214
82.96    230
82.98    198
83.0     196
83.02    177
83.04    228
83.06    238
83.08    241
83.1     235
83.12    290
83.14    306
83.16    293
83.18    314
83.2     344
83.22    418
83.24    464
83.26    472
83.28    491
83.3     467
83.32    485
83.34    434
83.36    367
83.38    384
83.4     391
83.42    395
83.44    296
83.46    262
83.48    251
83.5     184
83.52    195
83.54    142
83.56    183
83.58    262
83.6     306
83.62    329
83.64    337
83.66    373
83.68    396
83.7     440
83.72    493
83.74    524
83.76    609
83.78    577
83.8     525
83.82    497
83.84    437
83.86    402
83.88    387
83.9     400
83.92    408
83.94    375
83.96    276
83.98    190
84.0     122
84.02    85
84.04    86
84.06    163
84.08    247
84.1     327
84.12    362
84.14    317
84.16    315
84.18    314
84.2     339
84.22    341
84.24    393
84.26    402
84.28    453
84.3     484
84.32    417
84.34    424
84.36    414
84.38    375
84.4     446
84.42    381
84.44    315
84.46    223
84.48    175
84.5     182
84.52    118
84.54    139
84.56    132
84.58    239
84.6     290
84.62    356
84.64    345
84.66    346
84.68    358
84.7     430
84.72    481
84.74    617
84.76    676
84.78    761
84.8     713
84.82    741
84.84    592
84.86    512
84.88    403
84.9     369
84.92    398
84.94    403
84.96    377
84.98    374
85.0     344
85.02    304
85.04    307
85.06    323
85.08    300
85.1     310
85.12    330
85.14    269
85.16    210
85.18    249
85.2     264
85.22    295
85.24    356
85.26    406
85.28    422
85.3     377
85.32    318
85.34    271
85.36    203
85.38    307
85.4     348
85.42    392
85.44    374
85.46    365
85.48    359
85.5     292
85.52    320
85.54    372
85.56    440
85.58    579
85.6     613
85.62    641
85.64    602
85.66    513
85.68    471
85.7     400
85.72    407
85.74    326
85.76    251
85.78    167
85.8     133
85.82    137
85.84    132
85.86    125
85.88    164
85.9     221
85.92    324
85.94    382
85.96    360
85.98    359
86.0     439
86.02    487
86.04    511
86.06    497
86.08    466
86.1     493
86.12    532
86.14    549
86.16    511
86.18    427
86.2     410
86.22    447
86.24    489
86.26    494
86.28    492
86.3     522
86.32    548
86.34    652
86.36    780
86.38    836
86.4     936
86.42    1084
86.44    1263
86.46    1338
86.48    1390
86.5     1352
86.52    1281
86.54    1239
86.56    1238
86.58    1163
86.6     1009
86.62    903
86.64    875
86.66    815
86.68    791
86.7     666
86.72    540
86.74    414
86.76    375
86.78    330
86.8     274
86.82    208
86.84    248
86.86    289
86.88    331
86.9     318
86.92    309
86.94    290
86.96    288
86.98    321
87.0     350
87.02    330
87.04    415
87.06    479
87.08    522
87.1     505
87.12    526
87.14    481
87.16    397
87.18    274
87.2     211
87.22    212
87.24    256
87.26    273
87.28    263
87.3     258
87.32    312
87.34    249
87.36    240
87.38    179
87.4     223
87.42    287
87.44    292
87.46    291
87.48    345
87.5     296
87.52    315
87.54    315
87.56    357
87.58    398
87.6     461
87.62    478
87.64    462
87.66    470
87.68    466
87.7     322
87.72    304
87.74    298
87.76    278
87.78    340
87.8     353
87.82    370
87.84    363
87.86    339
87.88    247
87.9     213
87.92    210
87.94    258
87.96    287
87.98    357
88.0     334
88.02    312
88.04    340
88.06    331
88.08    322
88.1     371
88.12    440
88.14    470
88.16    533
88.18    469
88.2     399
88.22    351
88.24    355
88.26    312
88.28    310
88.3     373
88.32    368
88.34    369
88.36    390
88.38    296
88.4     314
88.42    300
88.44    253
88.46    245
88.48    185
88.5     213
88.52    132
88.54    209
88.56    260
88.58    283
88.6     382
88.62    419
88.64    463
88.66    489
88.68    370
88.7     350
88.72    327
88.74    346
88.76    379
88.78    361
88.8     421
88.82    373
88.84    350
88.86    368
88.88    291
88.9     317
88.92    370
88.94    382
88.96    486
88.98    527
89.0     499
89.02    409
89.04    313
89.06    300
89.08    160
89.1     146
89.12    169
89.14    154
89.16    178
89.18    248
89.2     248
89.22    271
89.24    228
89.26    222
89.28    221
89.3     267
89.32    303
89.34    278
89.36    331
89.38    399
89.4     310
89.42    314
89.44    256
89.46    201
89.48    258
89.5     292
89.52    331
89.54    384
89.56    477
89.58    462
89.6     388
89.62    351
89.64    203
89.66    121
89.68    156
89.7     201
89.72    217
89.74    286
89.76    359
89.78    401
89.8     397
89.82    334
89.84    318
89.86    323
89.88    419
89.9     441
89.92    505
89.94    498
89.96    519
89.98    497
90.0     486
