?
5.0      721
5.02     721
5.04     933
5.06     877
5.08     879
5.1      904
5.12     887
5.14     891
5.16     884
5.18     893
5.2      882
5.22     861
5.24     802
5.26     783
5.28     768
5.3      750
5.32     731
5.34     759
5.36     774
5.38     799
5.4      807
5.42     820
5.44     816
5.46     829
5.48     806
5.5      801
5.52     787
5.54     809
5.56     815
5.58     838
5.6      814
5.62     829
5.64     820
5.66     801
5.68     827
5.7      817
5.72     775
5.74     804
5.76     783
5.78     816
5.8      785
5.82     799
5.84     770
5.86     799
5.88     797
5.9      781
5.92     743
5.94     772
5.96     746
5.98     749
6.0      744
6.02     736
6.04     733
6.06     767
6.08     751
6.1      762
6.12     712
6.14     765
6.16     776
6.18     809
6.2      836
6.22     826
6.24     811
6.26     824
6.28     809
6.3      803
6.32     764
6.34     791
6.36     817
6.38     817
6.4      828
6.42     819
6.44     809
6.46     832
6.48     810
6.5      802
6.52     707
6.54     690
6.56     703
6.58     694
6.6      709
6.62     703
6.64     724
6.66     736
6.68     748
6.7      807
6.72     803
6.74     813
6.76     805
6.78     778
6.8      698
6.82     704
6.84     664
6.86     666
6.88     717
6.9      771
6.92     794
6.94     793
6.96     835
6.98     787
7.0      810
7.02     845
7.04     859
7.06     836
7.08     851
7.1      819
7.12     802
7.14     763
7.16     771
7.18     718
7.2      779
7.22     772
7.24     806
7.26     788
7.28     800
7.3      789
7.32     770
7.34     805
7.36     825
7.38     810
7.4      823
7.42     804
7.44     803
7.46     792
7.48     757
7.5      743
7.52     742
7.54     785
7.56     771
7.58     751
7.6      813
7.62     779
7.64     797
7.66     767
7.68     754
7.7      736
7.72     722
7.74     723
7.76     709
7.78     716
7.8      783
7.82     723
7.84     724
7.86     695
7.88     720
7.9      744
7.92     780
7.94     808
7.96     795
7.98     862
8.0      837
8.02     829
8.04     749
8.06     732
8.08     720
8.1      721
8.12     766
8.14     745
8.16     788
8.18     830
8.2      828
8.22     851
8.24     830
8.26     835
8.28     830
8.3      758
8.32     779
8.34     759
8.36     808
8.38     753
8.4      746
8.42     728
8.44     808
8.46     775
8.48     771
8.5      743
8.52     804
8.54     786
8.56     809
8.58     765
8.6      730
8.62     760
8.64     759
8.66     756
8.68     761
8.7      804
8.72     837
8.74     802
8.76     867
8.78     861
8.8      834
8.82     824
8.84     799
8.86     829
8.88     797
8.9      742
8.92     716
8.94     693
8.96     689
8.98     686
9.0      690
9.02     689
9.04     751
9.06     745
9.08     734
9.1      642
9.12     650
9.14     644
9.16     671
9.18     715
9.2      748
9.22     713
9.24     758
9.26     686
9.28     639
9.3      627
9.32     604
9.34     599
9.36     608
9.38     648
9.4      626
9.42     622
9.44     609
9.46     565
9.48     557
9.5      551
9.52     494
9.54     481
9.56     518
9.58     545
9.6      569
9.62     626
9.64     640
9.66     611
9.68     602
9.7      572
9.72     534
9.74     521
9.76     581
9.78     555
9.8      652
9.82     658
9.84     649
9.86     573
9.88     573
9.9      524
9.92     512
9.94     489
9.96     517
9.98     571
10.0     644
10.02    649
10.04    663
10.06    617
10.08    585
10.1     534
10.12    559
10.14    517
10.16    510
10.18    546
10.2     530
10.22    516
10.24    508
10.26    510
10.28    470
10.3     472
10.32    531
10.34    533
10.36    522
10.38    564
10.4     535
10.42    506
10.44    507
10.46    550
10.48    480
10.5     516
10.52    513
10.54    484
10.56    462
10.58    487
10.6     488
10.62    501
10.64    523
10.66    567
10.68    562
10.7     580
10.72    544
10.74    574
10.76    554
10.78    607
10.8     632
10.82    629
10.84    598
10.86    558
10.88    520
10.9     509
10.92    504
10.94    476
10.96    494
10.98    548
11.0     531
11.02    546
11.04    514
11.06    464
11.08    517
11.1     586
11.12    559
11.14    547
11.16    553
11.18    581
11.2     577
11.22    530
11.24    469
11.26    432
11.28    448
11.3     467
11.32    445
11.34    514
11.36    507
11.38    583
11.4     630
11.42    615
11.44    647
11.46    687
11.48    665
11.5     708
11.52    685
11.54    663
11.56    624
11.58    651
11.6     599
11.62    597
11.64    616
11.66    636
11.68    627
11.7     629
11.72    630
11.74    659
11.76    682
11.78    673
11.8     651
11.82    675
11.84    691
11.86    672
11.88    641
11.9     637
11.92    741
11.94    741
11.96    713
11.98    645
12.0     652
12.02    623
12.04    674
12.06    625
12.08    689
12.1     765
12.12    860
12.14    849
12.16    832
12.18    748
12.2     708
12.22    664
12.24    627
12.26    551
12.28    643
12.3     677
12.32    661
12.34    649
12.36    667
12.38    678
12.4     660
12.42    650
12.44    609
12.46    605
12.48    674
12.5     662
12.52    626
12.54    636
12.56    665
12.58    698
12.6     712
12.62    701
12.64    646
12.66    676
12.68    686
12.7     648
12.72    623
12.74    635
12.76    625
12.78    701
12.8     748
12.82    742
12.84    762
12.86    788
12.88    788
12.9     822
12.92    774
12.94    776
12.96    763
12.98    768
13.0     746
13.02    753
13.04    778
13.06    794
13.08    859
13.1     849
13.12    769
13.14    804
13.16    805
13.18    723
13.2     691
13.22    749
13.24    772
13.26    781
13.28    782
13.3     745
13.32    752
13.34    805
13.36    808
13.38    801
13.4     827
13.42    907
13.44    878
13.46    853
13.48    880
13.5     891
13.52    859
13.54    845
13.56    868
13.58    970
13.6     985
13.62    994
13.64    975
13.66    1020
13.68    1010
13.7     1032
13.72    1033
13.74    1038
13.76    1042
13.78    1081
13.8     986
13.82    913
13.84    912
13.86    918
13.88    913
13.9     1016
13.92    1050
13.94    1016
13.96    1024
13.98    1088
14.0     1034
14.02    1033
14.04    982
14.06    947
14.08    963
14.1     982
14.12    918
14.14    861
14.16    931
14.18    984
14.2     954
14.22    951
14.24    933
14.26    918
14.28    913
14.3     912
14.32    919
14.34    949
14.36    959
14.38    968
14.4     986
14.42    977
14.44    1015
14.46    998
14.48    997
14.5     988
14.52    983
14.54    925
14.56    895
14.58    865
14.6     837
14.62    798
14.64    861
14.66    919
14.68    958
14.7     937
14.72    869
14.74    904
14.76    985
14.78    937
14.8     896
14.82    896
14.84    1000
14.86    1096
14.88    1108
14.9     1049
14.92    1047
14.94    1077
14.96    1077
14.98    1060
15.0     1007
15.02    978
15.04    1050
15.06    1061
15.08    1023
15.1     965
15.12    994
15.14    943
15.16    976
15.18    1006
15.2     961
15.22    931
15.24    949
15.26    903
15.28    918
15.3     913
15.32    982
15.34    1021
15.36    1070
15.38    1090
15.4     1100
15.42    1067
15.44    998
15.46    963
15.48    960
15.5     975
15.52    1010
15.54    1064
15.56    1100
15.58    1101
15.6     1106
15.62    1113
15.64    1114
15.66    1113
15.68    1125
15.7     1162
15.72    1187
15.74    1225
15.76    1253
15.78    1212
15.8     1210
15.82    1287
15.84    1350
15.86    1415
15.88    1495
15.9     1529
15.92    1575
15.94    1623
15.96    1675
15.98    1678
16.0     1741
16.02    1873
16.04    1989
16.06    2060
16.08    2180
16.1     2350
16.12    2466
16.14    2583
16.16    2778
16.18    3020
16.2     3310
16.22    3592
16.24    3913
16.26    4282
16.28    4793
16.3     5466
16.32    6188
16.34    7129
16.36    8221
16.38    9551
16.4     11199
16.42    13171
16.44    15631
16.46    18706
16.48    22413
16.5     26830
16.52    31553
16.54    35870
16.56    38842
16.58    39901
16.6     38653
16.62    35093
16.64    29806
16.66    23770
16.68    17903
16.7     13031
16.72    9466
16.74    7145
16.76    5608
16.78    4670
16.8     4027
16.82    3493
16.84    3021
16.86    2682
16.88    2425
16.9     2279
16.92    2144
16.94    2002
16.96    1771
16.98    1658
17.0     1613
17.02    1569
17.04    1499
17.06    1415
17.08    1351
17.1     1353
17.12    1362
17.14    1276
17.16    1238
17.18    1228
17.2     1234
17.22    1174
17.24    1148
17.26    1113
17.28    1082
17.3     1103
17.32    1138
17.34    1083
17.36    1062
17.38    983
17.4     916
17.42    907
17.44    953
17.46    941
17.48    915
17.5     938
17.52    883
17.54    870
17.56    841
17.58    731
17.6     693
17.62    785
17.64    795
17.66    793
17.68    810
17.7     836
17.72    793
17.74    832
17.76    826
17.78    741
17.8     731
17.82    752
17.84    709
17.86    697
17.88    709
17.9     712
17.92    685
17.94    683
17.96    662
17.98    620
18.0     607
18.02    612
18.04    559
18.06    516
18.08    521
18.1     559
18.12    545
18.14    577
18.16    619
18.18    662
18.2     706
18.22    724
18.24    613
18.26    550
18.28    533
18.3     571
18.32    539
18.34    548
18.36    603
18.38    669
18.4     651
18.42    611
18.44    487
18.46    483
18.48    524
18.5     560
18.52    563
18.54    578
18.56    635
18.58    639
18.6     581
18.62    541
18.64    497
18.66    513
18.68    591
18.7     609
18.72    625
18.74    629
18.76    645
18.78    637
18.8     603
18.82    554
18.84    560
18.86    569
18.88    611
18.9     602
18.92    608
18.94    643
18.96    660
18.98    575
19.0     551
19.02    564
19.04    560
19.06    547
19.08    547
19.1     560
19.12    625
19.14    638
19.16    614
19.18    555
19.2     519
19.22    503
19.24    484
19.26    445
19.28    461
19.3     462
19.32    525
19.34    559
19.36    593
19.38    594
19.4     538
19.42    512
19.44    537
19.46    461
19.48    440
19.5     400
19.52    444
19.54    451
19.56    465
19.58    495
19.6     490
19.62    519
19.64    587
19.66    596
19.68    574
19.7     590
19.72    538
19.74    505
19.76    549
19.78    549
19.8     503
19.82    506
19.84    498
19.86    536
19.88    526
19.9     541
19.92    465
19.94    513
19.96    582
19.98    549
20.0     476
20.02    410
20.04    398
20.06    400
20.08    365
20.1     367
20.12    391
20.14    447
20.16    508
20.18    535
20.2     537
20.22    516
20.24    507
20.26    481
20.28    442
20.3     444
20.32    437
20.34    400
20.36    435
20.38    446
20.4     421
20.42    458
20.44    480
20.46    489
20.48    534
20.5     592
20.52    591
20.54    560
20.56    544
20.58    534
20.6     504
20.62    538
20.64    499
20.66    511
20.68    565
20.7     548
20.72    529
20.74    533
20.76    515
20.78    511
20.8     524
20.82    576
20.84    561
20.86    577
20.88    538
20.9     509
20.92    527
20.94    538
20.96    494
20.98    475
21.0     487
21.02    498
21.04    497
21.06    467
21.08    432
21.1     423
21.12    466
21.14    492
21.16    455
21.18    450
21.2     416
21.22    478
21.24    506
21.26    455
21.28    395
21.3     373
21.32    419
21.34    478
21.36    442
21.38    438
21.4     447
21.42    531
21.44    528
21.46    508
21.48    424
21.5     372
21.52    377
21.54    470
21.56    460
21.58    504
21.6     528
21.62    570
21.64    507
21.66    444
21.68    290
21.7     250
21.72    255
21.74    344
21.76    335
21.78    394
21.8     503
21.82    516
21.84    529
21.86    446
21.88    407
21.9     413
21.92    380
21.94    337
21.96    222
21.98    208
22.0     262
22.02    278
22.04    341
22.06    270
22.08    263
22.1     273
22.12    344
22.14    381
22.16    346
22.18    355
22.2     373
22.22    381
22.24    331
22.26    276
22.28    213
22.3     285
22.32    348
22.34    387
22.36    314
22.38    283
22.4     239
22.42    230
22.44    245
22.46    253
22.48    245
22.5     355
22.52    426
22.54    461
22.56    403
22.58    296
22.6     285
22.62    328
22.64    354
22.66    296
22.68    272
22.7     309
22.72    408
22.74    447
22.76    385
22.78    246
22.8     266
22.82    326
22.84    390
22.86    311
22.88    301
22.9     290
22.92    375
22.94    386
22.96    318
22.98    234
23.0     233
23.02    295
23.04    343
23.06    331
23.08    347
23.1     279
23.12    313
23.14    268
23.16    293
23.18    287
23.2     271
23.22    228
23.24    210
23.26    215
23.28    214
23.3     194
23.32    254
23.34    288
23.36    390
23.38    412
23.4     377
23.42    278
23.44    294
23.46    325
23.48    390
23.5     365
23.52    390
23.54    437
23.56    456
23.58    346
23.6     242
23.62    118
23.64    173
23.66    201
23.68    252
23.7     267
23.72    323
23.74    388
23.76    393
23.78    322
23.8     317
23.82    295
23.84    284
23.86    205
23.88    152
23.9     121
23.92    102
23.94    138
23.96    223
23.98    289
24.0     335
24.02    419
24.04    450
24.06    407
24.08    348
24.1     276
24.12    260
24.14    253
24.16    258
24.18    185
24.2     119
24.22    197
24.24    294
24.26    273
24.28    228
24.3     221
24.32    255
24.34    273
24.36    266
24.38    229
24.4     175
24.42    224
24.44    313
24.46    290
24.48    313
24.5     382
24.52    395
24.54    393
24.56    352
24.58    277
24.6     215
24.62    209
24.64    275
24.66    275
24.68    359
24.7     374
24.72    382
24.74    383
24.76    363
24.78    300
24.8     273
24.82    255
24.84    288
24.86    252
24.88    298
24.9     296
24.92    333
24.94    303
24.96    293
24.98    265
25.0     220
25.02    195
25.04    145
25.06    144
25.08    225
25.1     322
25.12    361
25.14    348
25.16    356
25.18    313
25.2     226
25.22    140
25.24    53
25.26    98
25.28    130
25.3     227
25.32    281
25.34    326
25.36    304
25.38    303
25.4     296
25.42    246
25.44    245
25.46    261
25.48    247
25.5     274
25.52    279
25.54    289
25.56    283
25.58    292
25.6     272
25.62    212
25.64    162
25.66    166
25.68    192
25.7     193
25.72    200
25.74    216
25.76    250
25.78    289
25.8     273
25.82    246
25.84    158
25.86    166
25.88    143
25.9     170
25.92    216
25.94    213
25.96    250
25.98    297
26.0     310
26.02    260
26.04    192
26.06    151
26.08    134
26.1     210
26.12    220
26.14    236
26.16    224
26.18    231
26.2     216
26.22    148
26.24    194
26.26    163
26.28    177
26.3     196
26.32    163
26.34    200
26.36    237
26.38    234
26.4     250
26.42    245
26.44    311
26.46    282
26.48    299
26.5     274
26.52    264
26.54    279
26.56    275
26.58    202
26.6     239
26.62    214
26.64    301
26.66    264
26.68    227
26.7     207
26.72    223
26.74    208
26.76    170
26.78    174
26.8     249
26.82    221
26.84    244
26.86    149
26.88    86
26.9     80
26.92    108
26.94    167
26.96    222
26.98    261
27.0     251
27.02    215
27.04    200
27.06    186
27.08    238
27.1     239
27.12    263
27.14    275
27.16    249
27.18    156
27.2     71
27.22    24
27.24    40
27.26    106
27.28    189
27.3     214
27.32    249
27.34    331
27.36    366
27.38    337
27.4     346
27.42    322
27.44    318
27.46    292
27.48    307
27.5     324
27.52    399
27.54    425
27.56    383
27.58    320
27.6     250
27.62    223
27.64    154
27.66    178
27.68    249
27.7     270
27.72    293
27.74    233
27.76    184
27.78    166
27.8     110
27.82    149
27.84    135
27.86    209
27.88    303
27.9     312
27.92    323
27.94    277
27.96    160
27.98    144
28.0     98
28.02    125
28.04    203
28.06    266
28.08    342
28.1     307
28.12    294
28.14    201
28.16    137
28.18    193
28.2     198
28.22    308
28.24    357
28.26    385
28.28    366
28.3     336
28.32    357
28.34    332
28.36    362
28.38    331
28.4     266
28.42    250
28.44    165
28.46    163
28.48    112
28.5     140
28.52    160
28.54    124
28.56    231
28.58    281
28.6     326
28.62    349
28.64    298
28.66    284
28.68    259
28.7     270
28.72    245
28.74    247
28.76    293
28.78    265
28.8     235
28.82    175
28.84    140
28.86    115
28.88    128
28.9     138
28.92    191
28.94    250
28.96    233
28.98    228
29.0     270
29.02    290
29.04    342
29.06    291
29.08    250
29.1     200
29.12    173
29.14    182
29.16    193
29.18    238
29.2     265
29.22    228
29.24    187
29.26    165
29.28    118
29.3     110
29.32    146
29.34    176
29.36    258
29.38    296
29.4     269
29.42    249
29.44    238
29.46    266
29.48    240
29.5     209
29.52    247
29.54    252
29.56    225
29.58    213
29.6     197
29.62    167
29.64    152
29.66    125
29.68    131
29.7     128
29.72    223
29.74    325
29.76    293
29.78    325
29.8     272
29.82    180
29.84    162
29.86    138
29.88    196
29.9     213
29.92    275
29.94    301
29.96    293
29.98    314
30.0     302
30.02    276
30.04    273
30.06    230
30.08    243
30.1     253
30.12    233
30.14    258
30.16    270
30.18    290
30.2     345
30.22    339
30.24    310
30.26    261
30.28    261
30.3     237
30.32    218
30.34    231
30.36    165
30.38    177
30.4     213
30.42    233
30.44    249
30.46    253
30.48    245
30.5     244
30.52    240
30.54    206
30.56    188
30.58    219
30.6     210
30.62    244
30.64    210
30.66    199
30.68    214
30.7     171
30.72    145
30.74    180
30.76    219
30.78    275
30.8     273
30.82    257
30.84    230
30.86    215
30.88    213
30.9     203
30.92    254
30.94    305
30.96    355
30.98    356
31.0     293
31.02    229
31.04    145
31.06    126
31.08    149
31.1     242
31.12    300
31.14    285
31.16    314
31.18    250
31.2     214
31.22    183
31.24    131
31.26    201
31.28    232
31.3     267
31.32    306
31.34    259
31.36    247
31.38    225
31.4     235
31.42    260
31.44    295
31.46    296
31.48    305
31.5     241
31.52    260
31.54    291
31.56    269
31.58    308
31.6     349
31.62    373
31.64    428
31.66    387
31.68    361
31.7     303
31.72    252
31.74    248
31.76    202
31.78    216
31.8     246
31.82    238
31.84    283
31.86    259
31.88    267
31.9     285
31.92    246
31.94    233
31.96    256
31.98    291
32.0     318
32.02    344
32.04    386
32.06    407
32.08    442
32.1     441
32.12    462
32.14    454
32.16    448
32.18    472
32.2     516
32.22    575
32.24    601
32.26    608
32.28    606
32.3     643
32.32    618
32.34    587
32.36    531
32.38    528
32.4     543
32.42    528
32.44    516
32.46    467
32.48    457
32.5     513
32.52    482
32.54    538
32.56    557
32.58    518
32.6     490
32.62    467
32.64    399
32.66    334
32.68    321
32.7     293
32.72    253
32.74    280
32.76    313
32.78    325
32.8     434
32.82    533
32.84    559
32.86    634
32.88    631
32.9     525
32.92    464
32.94    427
32.96    410
32.98    423
33.0     492
33.02    492
33.04    508
33.06    536
33.08    516
33.1     510
33.12    514
33.14    556
33.16    600
33.18    648
33.2     698
33.22    727
33.24    762
33.26    838
33.28    937
33.3     1016
33.32    1094
33.34    1212
33.36    1344
33.38    1516
33.4     1771
33.42    2166
33.44    2648
33.46    3402
33.48    4305
33.5     5428
33.52    6725
33.54    8027
33.56    9058
33.58    9647
33.6     9716
33.62    9163
33.64    8081
33.66    6808
33.68    5458
33.7     4309
33.72    3357
33.74    2744
33.76    2194
33.78    1793
33.8     1589
33.82    1305
33.84    1148
33.86    1059
33.88    1020
33.9     973
33.92    881
33.94    894
33.96    753
33.98    693
34.0     756
34.02    668
34.04    671
34.06    615
34.08    539
34.1     515
34.12    472
34.14    529
34.16    516
34.18    616
34.2     694
34.22    670
34.24    637
34.26    582
34.28    519
34.3     431
34.32    389
34.34    411
34.36    379
34.38    433
34.4     464
34.42    405
34.44    382
34.46    429
34.48    465
34.5     415
34.52    473
34.54    446
34.56    400
34.58    453
34.6     468
34.62    458
34.64    536
34.66    610
34.68    691
34.7     704
34.72    728
34.74    674
34.76    585
34.78    601
34.8     557
34.82    573
34.84    608
34.86    689
34.88    774
34.9     916
34.92    1132
34.94    1385
34.96    1772
34.98    2350
35.0     3109
35.02    4235
35.04    5718
35.06    7524
35.08    9184
35.1     10510
35.12    11160
35.14    11003
35.16    10034
35.18    8398
35.2     6492
35.22    4684
35.24    3275
35.26    2399
35.28    1827
35.3     1580
35.32    1510
35.34    1435
35.36    1305
35.38    1207
35.4     1108
35.42    963
35.44    887
35.46    900
35.48    872
35.5     895
35.52    925
35.54    919
35.56    863
35.58    828
35.6     784
35.62    652
35.64    609
35.66    668
35.68    645
35.7     657
35.72    681
35.74    655
35.76    564
35.78    560
35.8     540
35.82    548
35.84    584
35.86    677
35.88    695
35.9     704
35.92    678
35.94    653
35.96    602
35.98    622
36.0     630
36.02    651
36.04    666
36.06    729
36.08    778
36.1     924
36.12    1065
36.14    1292
36.16    1511
36.18    1633
36.2     1717
36.22    1798
36.24    1958
36.26    2157
36.28    2583
36.3     3174
36.32    4025
36.34    5364
36.36    7084
36.38    9295
36.4     12195
36.42    15464
36.44    18546
36.46    20845
36.48    21988
36.5     21458
36.52    19688
36.54    16826
36.56    13348
36.58    9945
36.6     7208
36.62    5138
36.64    3755
36.66    2904
36.68    2358
36.7     1949
36.72    1799
36.74    1613
36.76    1510
36.78    1387
36.8     1280
36.82    1124
36.84    1031
36.86    948
36.88    851
36.9     779
36.92    672
36.94    609
36.96    652
36.98    688
37.0     737
37.02    819
37.04    820
37.06    783
37.08    732
37.1     694
37.12    581
37.14    520
37.16    539
37.18    602
37.2     675
37.22    724
37.24    780
37.26    817
37.28    896
37.3     983
37.32    1011
37.34    964
37.36    963
37.38    871
37.4     791
37.42    692
37.44    650
37.46    534
37.48    514
37.5     500
37.52    549
37.54    547
37.56    571
37.58    540
37.6     619
37.62    615
37.64    604
37.66    591
37.68    567
37.7     559
37.72    564
37.74    603
37.76    597
37.78    582
37.8     601
37.82    589
37.84    530
37.86    543
37.88    472
37.9     482
37.92    433
37.94    500
37.96    472
37.98    429
38.0     441
38.02    480
38.04    416
38.06    427
38.08    425
38.1     466
38.12    421
38.14    489
38.16    507
38.18    490
38.2     505
38.22    550
38.24    473
38.26    409
38.28    416
38.3     367
38.32    300
38.34    310
38.36    379
38.38    384
38.4     401
38.42    460
38.44    446
38.46    409
38.48    434
38.5     391
38.52    351
38.54    364
38.56    370
38.58    354
38.6     363
38.62    416
38.64    445
38.66    474
38.68    526
38.7     540
38.72    497
38.74    466
38.76    307
38.78    229
38.8     179
38.82    198
38.84    225
38.86    330
38.88    458
38.9     531
38.92    580
38.94    561
38.96    495
38.98    434
39.0     370
39.02    304
39.04    268
39.06    266
39.08    264
39.1     276
39.12    362
39.14    397
39.16    459
39.18    470
39.2     447
39.22    396
39.24    386
39.26    301
39.28    271
39.3     296
39.32    406
39.34    426
39.36    459
39.38    503
39.4     473
39.42    428
39.44    434
39.46    378
39.48    411
39.5     461
39.52    539
39.54    511
39.56    579
39.58    553
39.6     480
39.62    457
39.64    418
39.66    352
39.68    399
39.7     413
39.72    416
39.74    478
39.76    553
39.78    468
39.8     486
39.82    483
39.84    400
39.86    363
39.88    477
39.9     435
39.92    457
39.94    491
39.96    473
39.98    390
40.0     438
40.02    416
40.04    462
40.06    595
40.08    786
40.1     881
40.12    1021
40.14    1021
40.16    1033
40.18    982
40.2     891
40.22    745
40.24    694
40.26    653
40.28    671
40.3     707
40.32    767
40.34    784
40.36    829
40.38    878
40.4     835
40.42    804
40.44    774
40.46    797
40.48    846
40.5     852
40.52    828
40.54    857
40.56    841
40.58    845
40.6     836
40.62    848
40.64    911
40.66    1042
40.68    1197
40.7     1267
40.72    1283
40.74    1298
40.76    1217
40.78    1152
40.8     1215
40.82    1246
40.84    1355
40.86    1510
40.88    1635
40.9     1715
40.92    1760
40.94    1839
40.96    1914
40.98    1960
41.0     2113
41.02    2146
41.04    2247
41.06    2324
41.08    2340
41.1     2464
41.12    2686
41.14    2915
41.16    3185
41.18    3442
41.2     3800
41.22    4162
41.24    4655
41.26    5280
41.28    6019
41.3     7081
41.32    8524
41.34    10202
41.36    12361
41.38    15170
41.4     18955
41.42    24047
41.44    30892
41.46    39567
41.48    49671
41.5     59914
41.52    68426
41.54    73492
41.56    73907
41.58    69741
41.6     61624
41.62    51102
41.64    40003
41.66    30039
41.68    22237
41.7     16596
41.72    12736
41.74    10159
41.76    8288
41.78    6951
41.8     5906
41.82    5082
41.84    4390
41.86    3808
41.88    3291
41.9     2916
41.92    2634
41.94    2452
41.96    2313
41.98    2193
42.0     2127
42.02    1999
42.04    1882
42.06    1785
42.08    1701
42.1     1592
42.12    1535
42.14    1483
42.16    1445
42.18    1378
42.2     1336
42.22    1344
42.24    1319
42.26    1318
42.28    1258
42.3     1221
42.32    1197
42.34    1100
42.36    996
42.38    904
42.4     867
42.42    883
42.44    862
42.46    906
42.48    927
42.5     976
42.52    946
42.54    951
42.56    926
42.58    932
42.6     925
42.62    925
42.64    966
42.66    992
42.68    955
42.7     880
42.72    826
42.74    798
42.76    707
42.78    648
42.8     658
42.82    682
42.84    737
42.86    750
42.88    837
42.9     853
42.92    867
42.94    837
42.96    781
42.98    706
43.0     614
43.02    609
43.04    575
43.06    588
43.08    670
43.1     699
43.12    744
43.14    747
43.16    783
43.18    763
43.2     666
43.22    667
43.24    623
43.26    624
43.28    614
43.3     637
43.32    654
43.34    661
43.36    676
43.38    661
43.4     577
43.42    521
43.44    512
43.46    514
43.48    541
43.5     647
43.52    692
43.54    740
43.56    771
43.58    761
43.6     710
43.62    638
43.64    602
43.66    569
43.68    561
43.7     653
43.72    656
43.74    706
43.76    779
43.78    767
43.8     745
43.82    674
43.84    676
43.86    607
43.88    557
43.9     591
43.92    550
43.94    600
43.96    575
43.98    591
44.0     574
44.02    560
44.04    560
44.06    519
44.08    557
44.1     569
44.12    557
44.14    597
44.16    507
44.18    547
44.2     506
44.22    483
44.24    411
44.26    403
44.28    470
44.3     474
44.32    554
44.34    632
44.36    617
44.38    638
44.4     634
44.42    621
44.44    582
44.46    505
44.48    560
44.5     567
44.52    639
44.54    633
44.56    591
44.58    593
44.6     560
44.62    523
44.64    549
44.66    505
44.68    576
44.7     571
44.72    624
44.74    647
44.76    670
44.78    692
44.8     659
44.82    701
44.84    737
44.86    738
44.88    758
44.9     808
44.92    990
44.94    1149
44.96    1352
44.98    1499
45.0     1681
45.02    1847
45.04    1901
45.06    1887
45.08    1769
45.1     1663
45.12    1545
45.14    1350
45.16    1188
45.18    1026
45.2     999
45.22    927
45.24    848
45.26    802
45.28    739
45.3     679
45.32    549
45.34    452
45.36    384
45.38    433
45.4     489
45.42    523
45.44    639
45.46    742
45.48    804
45.5     766
45.52    735
45.54    686
45.56    575
45.58    529
45.6     422
45.62    421
45.64    431
45.66    402
45.68    436
45.7     390
45.72    469
45.74    447
45.76    443
45.78    514
45.8     540
45.82    631
45.84    621
45.86    580
45.88    566
45.9     510
45.92    481
45.94    402
45.96    401
45.98    435
46.0     466
46.02    514
46.04    554
46.06    588
46.08    659
46.1     670
46.12    577
46.14    525
46.16    456
46.18    400
46.2     333
46.22    329
46.24    420
46.26    531
46.28    610
46.3     642
46.32    645
46.34    614
46.36    558
46.38    458
46.4     377
46.42    387
46.44    375
46.46    444
46.48    464
46.5     496
46.52    517
46.54    486
46.56    536
46.58    514
46.6     494
46.62    488
46.64    448
46.66    465
46.68    415
46.7     385
46.72    356
46.74    375
46.76    385
46.78    464
46.8     540
46.82    552
46.84    547
46.86    501
46.88    500
46.9     501
46.92    452
46.94    467
46.96    428
46.98    517
47.0     541
47.02    518
47.04    540
47.06    538
47.08    575
47.1     548
47.12    499
47.14    429
47.16    382
47.18    350
47.2     361
47.22    424
47.24    503
47.26    514
47.28    521
47.3     548
47.32    582
47.34    541
47.36    524
47.38    496
47.4     501
47.42    505
47.44    446
47.46    428
47.48    448
47.5     516
47.52    548
47.54    522
47.56    470
47.58    479
47.6     459
47.62    455
47.64    468
47.66    541
47.68    600
47.7     590
47.72    552
47.74    515
47.76    505
47.78    464
47.8     387
47.82    412
47.84    498
47.86    575
47.88    632
47.9     639
47.92    719
47.94    707
47.96    673
47.98    598
48.0     480
48.02    453
48.04    366
48.06    339
48.08    332
48.1     345
48.12    440
48.14    447
48.16    466
48.18    535
48.2     516
48.22    480
48.24    412
48.26    409
48.28    431
48.3     420
48.32    463
48.34    502
48.36    525
48.38    569
48.4     564
48.42    536
48.44    539
48.46    577
48.48    595
48.5     579
48.52    574
48.54    629
48.56    657
48.58    574
48.6     510
48.62    453
48.64    397
48.66    374
48.68    299
48.7     297
48.72    376
48.74    461
48.76    494
48.78    506
48.8     536
48.82    614
48.84    602
48.86    541
48.88    507
48.9     533
48.92    495
48.94    428
48.96    463
48.98    456
49.0     453
49.02    446
49.04    451
49.06    439
49.08    445
49.1     427
49.12    390
49.14    419
49.16    517
49.18    473
49.2     492
49.22    448
49.24    497
49.26    496
49.28    485
49.3     481
49.32    488
49.34    460
49.36    490
49.38    529
49.4     503
49.42    473
49.44    468
49.46    447
49.48    487
49.5     461
49.52    464
49.54    493
49.56    619
49.58    681
49.6     644
49.62    631
49.64    568
49.66    453
49.68    390
49.7     296
49.72    305
49.74    335
49.76    405
49.78    402
49.8     462
49.82    465
49.84    444
49.86    392
49.88    436
49.9     461
49.92    454
49.94    455
49.96    465
49.98    443
50.0     480
50.02    452
50.04    490
50.06    525
50.08    611
50.1     620
50.12    574
50.14    577
50.16    546
50.18    476
50.2     434
50.22    404
50.24    425
50.26    478
50.28    494
50.3     512
50.32    548
50.34    522
50.36    489
50.38    409
50.4     354
50.42    375
50.44    365
50.46    444
50.48    475
50.5     533
50.52    636
50.54    589
50.56    551
50.58    490
50.6     465
50.62    468
50.64    445
50.66    470
50.68    445
50.7     433
50.72    412
50.74    371
50.76    335
50.78    310
50.8     342
50.82    372
50.84    398
50.86    466
50.88    465
50.9     493
50.92    500
50.94    535
50.96    537
50.98    522
51.0     479
51.02    468
51.04    442
51.06    497
51.08    485
51.1     491
51.12    506
51.14    497
51.16    522
51.18    535
51.2     423
51.22    462
51.24    481
51.26    506
51.28    540
51.3     583
51.32    643
51.34    674
51.36    713
51.38    680
51.4     580
51.42    568
51.44    548
51.46    498
51.48    505
51.5     458
51.52    432
51.54    410
51.56    439
51.58    421
51.6     458
51.62    514
51.64    565
51.66    588
51.68    617
51.7     575
51.72    601
51.74    629
51.76    672
51.78    651
51.8     668
51.82    624
51.84    616
51.86    497
51.88    487
51.9     510
51.92    523
51.94    512
51.96    527
51.98    505
52.0     570
52.02    536
52.04    525
52.06    420
52.08    519
52.1     611
52.12    633
52.14    636
52.16    695
52.18    694
52.2     798
52.22    735
52.24    670
52.26    590
52.28    615
52.3     564
52.32    580
52.34    530
52.36    519
52.38    489
52.4     610
52.42    605
52.44    655
52.46    608
52.48    672
52.5     678
52.52    681
52.54    604
52.56    584
52.58    532
52.6     601
52.62    535
52.64    518
52.66    519
52.68    566
52.7     548
52.72    574
52.74    589
52.76    678
52.78    696
52.8     677
52.82    648
52.84    670
52.86    704
52.88    678
52.9     679
52.92    696
52.94    742
52.96    817
52.98    781
53.0     744
53.02    730
53.04    722
53.06    776
53.08    736
53.1     777
53.12    795
53.14    860
53.16    926
53.18    981
53.2     1089
53.22    1241
53.24    1349
53.26    1572
53.28    1739
53.3     1976
53.32    2272
53.34    2540
53.36    2943
53.38    3488
53.4     4076
53.42    4718
53.44    5265
53.46    5751
53.48    6004
53.5     5974
53.52    5706
53.54    5164
53.56    4596
53.58    3963
53.6     3353
53.62    2828
53.64    2467
53.66    2137
53.68    1863
53.7     1656
53.72    1465
53.74    1303
53.76    1208
53.78    1052
53.8     1072
53.82    1051
53.84    1040
53.86    960
53.88    865
53.9     809
53.92    729
53.94    625
53.96    539
53.98    502
54.0     593
54.02    630
54.04    688
54.06    743
54.08    771
54.1     819
54.12    850
54.14    830
54.16    742
54.18    668
54.2     547
54.22    494
54.24    497
54.26    516
54.28    541
54.3     578
54.32    654
54.34    672
54.36    654
54.38    584
54.4     484
54.42    475
54.44    510
54.46    485
54.48    485
54.5     498
54.52    552
54.54    566
54.56    566
54.58    554
54.6     556
54.62    534
54.64    525
54.66    450
54.68    420
54.7     426
54.72    439
54.74    388
54.76    403
54.78    492
54.8     553
54.82    591
54.84    600
54.86    599
54.88    596
54.9     622
54.92    590
54.94    477
54.96    453
54.98    489
55.0     499
55.02    587
55.04    541
55.06    516
55.08    580
55.1     702
55.12    713
55.14    700
55.16    624
55.18    579
55.2     593
55.22    585
55.24    427
55.26    383
55.28    376
55.3     471
55.32    520
55.34    543
55.36    503
55.38    513
55.4     595
55.42    558
55.44    555
55.46    535
55.48    553
55.5     611
55.52    692
55.54    698
55.56    740
55.58    769
55.6     803
55.62    779
55.64    755
55.66    666
55.68    599
55.7     519
55.72    525
55.74    488
55.76    508
55.78    583
55.8     660
55.82    714
55.84    760
55.86    719
55.88    651
55.9     639
55.92    603
55.94    578
55.96    524
55.98    524
56.0     504
56.02    561
56.04    557
56.06    482
56.08    491
56.1     548
56.12    573
56.14    653
56.16    632
56.18    610
56.2     639
56.22    642
56.24    538
56.26    453
56.28    424
56.3     464
56.32    508
56.34    568
56.36    543
56.38    580
56.4     654
56.42    693
56.44    685
56.46    683
56.48    647
56.5     629
56.52    611
56.54    631
56.56    593
56.58    560
56.6     590
56.62    594
56.64    678
56.66    770
56.68    774
56.7     792
56.72    801
56.74    904
56.76    869
56.78    797
56.8     728
56.82    682
56.84    770
56.86    743
56.88    681
56.9     631
56.92    614
56.94    672
56.96    695
56.98    675
57.0     655
57.02    768
57.04    872
57.06    839
57.08    822
57.1     743
57.12    710
57.14    663
57.16    647
57.18    550
57.2     538
57.22    638
57.24    750
57.26    732
57.28    809
57.3     825
57.32    826
57.34    839
57.36    845
57.38    778
57.4     734
57.42    751
57.44    670
57.46    570
57.48    577
57.5     622
57.52    694
57.54    767
57.56    890
57.58    927
57.6     974
57.62    1003
57.64    966
57.66    955
57.68    950
57.7     966
57.72    991
57.74    1002
57.76    1077
57.78    1104
57.8     1144
57.82    1192
57.84    1266
57.86    1365
57.88    1392
57.9     1431
57.92    1479
57.94    1628
57.96    1814
57.98    1982
58.0     2176
58.02    2375
58.04    2635
58.06    2982
58.08    3309
58.1     3725
58.12    4285
58.14    5056
58.16    6011
58.18    7177
58.2     8398
58.22    9724
58.24    11108
58.26    12343
58.28    13182
58.3     13488
58.32    13251
58.34    12504
58.36    11467
58.38    10166
58.4     8631
58.42    7264
58.44    6131
58.46    5214
58.48    4442
58.5     3860
58.52    3372
58.54    2989
58.56    2722
58.58    2458
58.6     2183
58.62    1929
58.64    1718
58.66    1504
58.68    1338
58.7     1297
58.72    1237
58.74    1158
58.76    1132
58.78    1167
58.8     1220
58.82    1174
58.84    1111
58.86    1062
58.88    1015
58.9     966
58.92    907
58.94    838
58.96    748
58.98    741
59.0     738
59.02    641
59.04    635
59.06    659
59.08    669
59.1     716
59.12    761
59.14    726
59.16    624
59.18    621
59.2     609
59.22    567
59.24    603
59.26    613
59.28    644
59.3     751
59.32    804
59.34    774
59.36    700
59.38    677
59.4     675
59.42    631
59.44    653
59.46    564
59.48    547
59.5     587
59.52    580
59.54    575
59.56    522
59.58    528
59.6     579
59.62    578
59.64    616
59.66    562
59.68    609
59.7     597
59.72    575
59.74    580
59.76    573
59.78    605
59.8     635
59.82    657
59.84    706
59.86    711
59.88    729
59.9     762
59.92    763
59.94    690
59.96    680
59.98    670
60.0     645
60.02    645
60.04    662
60.06    603
60.08    556
60.1     588
60.12    525
60.14    469
60.16    511
60.18    595
60.2     606
60.22    625
60.24    700
60.26    719
60.28    688
60.3     708
60.32    682
60.34    627
60.36    609
60.38    610
60.4     510
60.42    480
60.44    490
60.46    463
60.48    442
60.5     517
60.52    486
60.54    450
60.56    503
60.58    546
60.6     615
60.62    675
60.64    680
60.66    652
60.68    732
60.7     752
60.72    693
60.74    662
60.76    627
60.78    605
60.8     650
60.82    644
60.84    629
60.86    623
60.88    715
60.9     728
60.92    726
60.94    683
60.96    559
60.98    512
61.0     474
61.02    421
61.04    410
61.06    397
61.08    403
61.1     434
61.12    500
61.14    520
61.16    552
61.18    616
61.2     646
61.22    663
61.24    683
61.26    677
61.28    614
61.3     621
61.32    630
61.34    609
61.36    643
61.38    614
61.4     604
61.42    559
61.44    583
61.46    565
61.48    548
61.5     621
61.52    660
61.54    692
61.56    746
61.58    763
61.6     804
61.62    759
61.64    826
61.66    793
61.68    870
61.7     1004
61.72    1029
61.74    1013
61.76    1098
61.78    1231
61.8     1294
61.82    1396
61.84    1584
61.86    1703
61.88    1938
61.9     2252
61.92    2599
61.94    3018
61.96    3636
61.98    4490
62.0     5574
62.02    7089
62.04    8834
62.06    10863
62.08    12978
62.1     14909
62.12    16414
62.14    17155
62.16    16887
62.18    15885
62.2     14232
62.22    12188
62.24    10057
62.26    8172
62.28    6549
62.3     5253
62.32    4326
62.34    3651
62.36    3015
62.38    2534
62.4     2156
62.42    1820
62.44    1575
62.46    1356
62.48    1239
62.5     1128
62.52    1063
62.54    1094
62.56    1059
62.58    965
62.6     949
62.62    963
62.64    921
62.66    906
62.68    892
62.7     857
62.72    791
62.74    727
62.76    691
62.78    541
62.8     503
62.82    557
62.84    520
62.86    545
62.88    567
62.9     626
62.92    672
62.94    706
62.96    812
62.98    761
63.0     759
63.02    814
63.04    728
63.06    665
63.08    594
63.1     537
63.12    506
63.14    441
63.16    468
63.18    480
63.2     472
63.22    543
63.24    523
63.26    532
63.28    532
63.3     589
63.32    607
63.34    569
63.36    597
63.38    586
63.4     540
63.42    529
63.44    499
63.46    521
63.48    521
63.5     564
63.52    576
63.54    567
63.56    557
63.58    571
63.6     593
63.62    607
63.64    585
63.66    639
63.68    658
63.7     699
63.72    717
63.74    709
63.76    691
63.78    692
63.8     653
63.82    651
63.84    640
63.86    649
63.88    651
63.9     602
63.92    559
63.94    585
63.96    602
63.98    605
64.0     649
64.02    763
64.04    814
64.06    766
64.08    780
64.1     706
64.12    691
64.14    663
64.16    607
64.18    567
64.2     589
64.22    601
64.24    633
64.26    600
64.28    671
64.3     677
64.32    754
64.34    703
64.36    719
64.38    710
64.4     778
64.42    759
64.44    788
64.46    795
64.48    787
64.5     815
64.52    942
64.54    938
64.56    1023
64.58    1089
64.6     1254
64.62    1340
64.64    1506
64.66    1772
64.68    1992
64.7     2323
64.72    2793
64.74    3233
64.76    3662
64.78    4037
64.8     4318
64.82    4409
64.84    4308
64.86    4068
64.88    3670
64.9     3241
64.92    2839
64.94    2418
64.96    2025
64.98    1742
65.0     1491
65.02    1298
65.04    1129
65.06    1064
65.08    1036
65.1     1047
65.12    1021
65.14    949
65.16    889
65.18    841
65.2     752
65.22    681
65.24    615
65.26    580
65.28    523
65.3     561
65.32    583
65.34    558
65.36    536
65.38    554
65.4     542
65.42    548
65.44    579
65.46    600
65.48    606
65.5     648
65.52    662
65.54    661
65.56    638
65.58    668
65.6     639
65.62    584
65.64    570
65.66    520
65.68    503
65.7     453
65.72    482
65.74    524
65.76    488
65.78    511
65.8     539
65.82    560
65.84    596
65.86    572
65.88    587
65.9     592
65.92    664
65.94    630
65.96    558
65.98    503
66.0     464
66.02    459
66.04    407
66.06    402
66.08    416
66.1     419
66.12    454
66.14    434
66.16    456
66.18    454
66.2     451
66.22    464
66.24    488
66.26    564
66.28    601
66.3     623
66.32    664
66.34    651
66.36    642
66.38    637
66.4     582
66.42    567
66.44    557
66.46    492
66.48    426
66.5     445
66.52    478
66.54    440
66.56    486
66.58    507
66.6     554
66.62    624
66.64    596
66.66    518
66.68    488
66.7     505
66.72    505
66.74    480
66.76    542
66.78    593
66.8     555
66.82    559
66.84    540
66.86    528
66.88    541
66.9     551
66.92    538
66.94    554
66.96    598
66.98    659
67.0     611
67.02    589
67.04    584
67.06    557
67.08    506
67.1     525
67.12    454
67.14    422
67.16    401
67.18    404
67.2     438
67.22    451
67.24    538
67.26    555
67.28    582
67.3     630
67.32    630
67.34    599
67.36    570
67.38    526
67.4     498
67.42    463
67.44    450
67.46    463
67.48    536
67.5     553
67.52    601
67.54    616
67.56    608
67.58    531
67.6     459
67.62    383
67.64    356
67.66    353
67.68    413
67.7     353
67.72    425
67.74    465
67.76    549
67.78    627
67.8     672
67.82    705
67.84    714
67.86    690
67.88    682
67.9     640
67.92    647
67.94    619
67.96    634
67.98    581
68.0     504
68.02    500
68.04    506
68.06    484
68.08    468
68.1     453
68.12    444
68.14    463
68.16    470
68.18    467
68.2     544
68.22    639
68.24    667
68.26    708
68.28    720
68.3     696
68.32    671
68.34    659
68.36    642
68.38    629
68.4     643
68.42    596
68.44    503
68.46    494
68.48    495
68.5     498
68.52    438
68.54    485
68.56    524
68.58    559
68.6     636
68.62    757
68.64    817
68.66    872
68.68    946
68.7     978
68.72    1009
68.74    1084
68.76    1136
68.78    1196
68.8     1305
68.82    1402
68.84    1425
68.86    1614
68.88    1835
68.9     2128
68.92    2460
68.94    2869
68.96    3269
68.98    3631
69.0     3861
69.02    3948
69.04    3940
69.06    3824
69.08    3525
69.1     3189
69.12    2813
69.14    2477
69.16    2137
69.18    1824
69.2     1589
69.22    1383
69.24    1233
69.26    1106
69.28    1023
69.3     977
69.32    968
69.34    938
69.36    922
69.38    888
69.4     827
69.42    775
69.44    733
69.46    698
69.48    706
69.5     680
69.52    672
69.54    646
69.56    625
69.58    589
69.6     561
69.62    579
69.64    622
69.66    624
69.68    678
69.7     739
69.72    749
69.74    715
69.76    667
69.78    682
69.8     698
69.82    675
69.84    659
69.86    548
69.88    514
69.9     494
69.92    479
69.94    471
69.96    477
69.98    564
70.0     551
70.02    527
70.04    451
70.06    411
70.08    364
70.1     388
70.12    427
70.14    429
70.16    487
70.18    523
70.2     616
70.22    683
70.24    748
70.26    785
70.28    806
70.3     803
70.32    784
70.34    757
70.36    762
70.38    768
70.4     829
70.42    855
70.44    932
70.46    1022
70.48    1133
70.5     1267
70.52    1485
70.54    1623
70.56    1744
70.58    1895
70.6     1986
70.62    2038
70.64    2014
70.66    1981
70.68    1831
70.7     1765
70.72    1590
70.74    1438
70.76    1330
70.78    1233
70.8     1120
70.82    1003
70.84    927
70.86    881
70.88    805
70.9     808
70.92    717
70.94    706
70.96    720
70.98    683
71.0     622
71.02    655
71.04    691
71.06    695
71.08    670
71.1     680
71.12    653
71.14    644
71.16    655
71.18    609
71.2     599
71.22    643
71.24    607
71.26    569
71.28    540
71.3     587
71.32    598
71.34    586
71.36    546
71.38    539
71.4     566
71.42    508
71.44    521
71.46    536
71.48    532
71.5     559
71.52    558
71.54    593
71.56    603
71.58    671
71.6     680
71.62    753
71.64    817
71.66    795
71.68    721
71.7     692
71.72    608
71.74    518
71.76    475
71.78    471
71.8     465
71.82    522
71.84    509
71.86    549
71.88    591
71.9     643
71.92    644
71.94    676
71.96    745
71.98    773
72.0     767
72.02    754
72.04    781
72.06    812
72.08    727
72.1     667
72.12    698
72.14    761
72.16    785
72.18    827
72.2     860
72.22    992
72.24    1081
72.26    1191
72.28    1250
72.3     1386
72.32    1553
72.34    1660
72.36    1814
72.38    2073
72.4     2336
72.42    2693
72.44    3068
72.46    3529
72.48    3959
72.5     4294
72.52    4496
72.54    4623
72.56    4672
72.58    4524
72.6     4195
72.62    3836
72.64    3472
72.66    3039
72.68    2712
72.7     2383
72.72    2120
72.74    1977
72.76    1785
72.78    1571
72.8     1447
72.82    1374
72.84    1266
72.86    1163
72.88    1084
72.9     993
72.92    905
72.94    822
72.96    735
72.98    711
73.0     773
73.02    750
73.04    675
73.06    710
73.08    653
73.1     637
73.12    632
73.14    656
73.16    734
73.18    783
73.2     862
73.22    799
73.24    868
73.26    986
73.28    963
73.3     967
73.32    992
73.34    1054
73.36    1062
73.38    1015
73.4     1027
73.42    1020
73.44    1156
73.46    1197
73.48    1198
73.5     1205
73.52    1138
73.54    1088
73.56    937
73.58    832
73.6     835
73.62    826
73.64    817
73.66    792
73.68    863
73.7     916
73.72    891
73.74    892
73.76    877
73.78    879
73.8     879
73.82    802
73.84    697
73.86    668
73.88    661
73.9     647
73.92    598
73.94    625
73.96    655
73.98    616
74.0     719
74.02    780
74.04    851
74.06    937
74.08    1018
74.1     1152
74.12    1263
74.14    1435
74.16    1562
74.18    1695
74.2     1977
74.22    2145
74.24    2294
74.26    2374
74.28    2456
74.3     2447
74.32    2367
74.34    2214
74.36    1990
74.38    1817
74.4     1699
74.42    1473
74.44    1320
74.46    1137
74.48    1010
74.5     897
74.52    842
74.54    823
74.56    816
74.58    957
74.6     984
74.62    971
74.64    1034
74.66    981
74.68    1033
74.7     1042
74.72    1148
74.74    1263
74.76    1412
74.78    1599
74.8     1632
74.82    1803
74.84    1910
74.86    1955
74.88    2052
74.9     2008
74.92    1990
74.94    1909
74.96    1790
74.98    1595
75.0     1444
75.02    1375
75.04    1302
75.06    1225
75.08    1195
75.1     1133
75.12    1105
75.14    1042
75.16    937
75.18    863
75.2     816
75.22    684
75.24    642
75.26    547
75.28    536
75.3     496
75.32    500
75.34    457
75.36    464
75.38    508
75.4     571
75.42    557
75.44    661
75.46    645
75.48    689
75.5     686
75.52    717
75.54    620
75.56    611
75.58    639
75.6     641
75.62    592
75.64    559
75.66    481
75.68    457
75.7     479
75.72    491
75.74    449
75.76    510
75.78    572
75.8     570
75.82    621
75.84    590
75.86    563
75.88    526
75.9     536
75.92    480
75.94    440
75.96    392
75.98    424
76.0     456
76.02    584
76.04    581
76.06    578
76.08    583
76.1     577
76.12    547
76.14    516
76.16    508
76.18    553
76.2     602
76.22    668
76.24    677
76.26    647
76.28    607
76.3     587
76.32    577
76.34    553
76.36    558
76.38    547
76.4     494
76.42    451
76.44    390
76.46    330
76.48    297
76.5     372
76.52    382
76.54    377
76.56    412
76.58    452
76.6     460
76.62    474
76.64    425
76.66    494
76.68    530
76.7     657
76.72    630
76.74    581
76.76    591
76.78    593
76.8     522
76.82    444
76.84    398
76.86    460
76.88    483
76.9     505
76.92    453
76.94    470
76.96    598
76.98    634
77.0     680
77.02    750
77.04    848
77.06    914
77.08    967
77.1     960
77.12    953
77.14    966
77.16    1038
77.18    989
77.2     1048
77.22    1057
77.24    1083
77.26    1087
77.28    1185
77.3     1326
77.32    1431
77.34    1569
77.36    1871
77.38    2099
77.4     2484
77.42    2852
77.44    3204
77.46    3632
77.48    4089
77.5     4563
77.52    4867
77.54    5166
77.56    5421
77.58    5431
77.6     5331
77.62    5013
77.64    4546
77.66    4083
77.68    3554
77.7     3148
77.72    2691
77.74    2331
77.76    2028
77.78    1785
77.8     1603
77.82    1406
77.84    1238
77.86    1180
77.88    1092
77.9     1032
77.92    888
77.94    828
77.96    805
77.98    807
78.0     836
78.02    815
78.04    799
78.06    862
78.08    775
78.1     667
78.12    606
78.14    649
78.16    632
78.18    597
78.2     609
78.22    580
78.24    487
78.26    525
78.28    512
78.3     504
78.32    514
78.34    542
78.36    534
78.38    486
78.4     466
78.42    457
78.44    385
78.46    490
78.48    563
78.5     545
78.52    528
78.54    532
78.56    501
78.58    468
78.6     479
78.62    498
78.64    503
78.66    524
78.68    544
78.7     506
78.72    505
78.74    509
78.76    447
78.78    446
78.8     445
78.82    474
78.84    478
78.86    431
78.88    452
78.9     536
78.92    552
78.94    548
78.96    498
78.98    501
79.0     522
79.02    551
79.04    479
79.06    397
79.08    417
79.1     467
79.12    383
79.14    341
79.16    349
79.18    415
79.2     493
79.22    525
79.24    486
79.26    468
79.28    472
79.3     475
79.32    452
79.34    434
79.36    511
79.38    584
79.4     639
79.42    579
79.44    511
79.46    456
79.48    416
79.5     403
79.52    403
79.54    444
79.56    469
79.58    525
79.6     497
79.62    434
79.64    393
79.66    405
79.68    446
79.7     434
79.72    434
79.74    411
79.76    374
79.78    366
79.8     336
79.82    361
79.84    422
79.86    522
79.88    590
79.9     674
79.92    701
79.94    703
79.96    743
79.98    786
80.0     726
80.02    690
80.04    690
80.06    636
80.08    563
80.1     559
80.12    528
80.14    422
80.16    364
80.18    330
80.2     258
80.22    250
80.24    306
80.26    339
80.28    364
80.3     380
80.32    389
80.34    348
80.36    305
80.38    368
80.4     468
80.42    588
80.44    645
80.46    671
80.48    618
80.5     543
80.52    458
80.54    409
80.56    352
80.58    393
80.6     465
80.62    520
80.64    476
80.66    424
80.68    357
80.7     328
80.72    307
80.74    346
80.76    384
80.78    413
80.8     502
80.82    534
80.84    510
80.86    505
80.88    468
80.9     519
80.92    581
80.94    595
80.96    582
80.98    570
81.0     564
81.02    556
81.04    483
81.06    501
81.08    462
81.1     461
81.12    444
81.14    363
81.16    311
81.18    259
81.2     249
81.22    238
81.24    200
81.26    251
81.28    312
81.3     353
81.32    385
81.34    413
81.36    422
81.38    454
81.4     545
81.42    512
81.44    462
81.46    470
81.48    501
81.5     561
81.52    509
81.54    526
81.56    471
81.58    471
81.6     436
81.62    356
81.64    235
81.66    223
81.68    236
81.7     270
81.72    243
81.74    263
81.76    295
81.78    346
81.8     357
81.82    397
81.84    415
81.86    484
81.88    470
81.9     475
81.92    472
81.94    418
81.96    489
81.98    442
82.0     405
82.02    378
82.04    418
82.06    420
82.08    417
82.1     416
82.12    441
82.14    460
82.16    518
82.18    428
82.2     420
82.22    435
82.24    449
82.26    444
82.28    385
82.3     291
82.32    266
82.34    214
82.36    193
82.38    163
82.4     239
82.42    395
82.44    460
82.46    513
82.48    516
82.5     530
82.52    521
82.54    477
82.56    424
82.58    378
82.6     371
82.62    394
82.64    347
82.66    269
82.68    299
82.7     323
82.72    315
82.74    329
82.76    291
82.78    362
82.8     348
82.82    408
82.84    476
82.86    455
82.88    504
82.9     497
82.92    516
82.94    506
82.96    474
82.98    475
83.0     417
83.02    426
83.04    410
83.06    368
83.08    364
83.1     327
83.12    398
83.14    397
83.16    436
83.18    462
83.2     501
83.22    432
83.24    395
83.26    404
83.28    344
83.3     300
83.32    349
83.34    407
83.36    468
83.38    478
83.4     493
83.42    390
83.44    376
83.46    396
83.48    397
83.5     431
83.52    489
83.54    505
83.56    484
83.58    460
83.6     412
83.62    375
83.64    404
83.66    500
83.68    560
83.7     487
83.72    397
83.74    317
83.76    288
83.78    251
83.8     253
83.82    351
83.84    390
83.86    432
83.88    416
83.9     308
83.92    227
83.94    220
83.96    294
83.98    407
84.0     529
84.02    606
84.04    569
84.06    495
84.08    410
84.1     335
84.12    352
84.14    377
84.16    494
84.18    596
84.2     582
84.22    547
84.24    394
84.26    288
84.28    221
84.3     244
84.32    300
84.34    336
84.36    444
84.38    512
84.4     562
84.42    548
84.44    464
84.46    491
84.48    472
84.5     472
84.52    391
84.54    412
84.56    438
84.58    499
84.6     575
84.62    560
84.64    572
84.66    585
84.68    553
84.7     575
84.72    533
84.74    607
84.76    587
84.78    650
84.8     617
84.82    552
84.84    490
84.86    434
84.88    424
84.9     441
84.92    483
84.94    572
84.96    531
84.98    532
85.0     447
85.02    425
85.04    408
85.06    408
85.08    420
85.1     491
85.12    527
85.14    518
85.16    454
85.18    408
85.2     363
85.22    406
85.24    454
85.26    463
85.28    522
85.3     595
85.32    522
85.34    458
85.36    386
85.38    396
85.4     367
85.42    377
85.44    392
85.46    393
85.48    382
85.5     353
85.52    292
85.54    301
85.56    263
85.58    303
85.6     277
85.62    326
85.64    380
85.66    446
85.68    465
85.7     488
85.72    521
85.74    549
85.76    533
85.78    539
85.8     500
85.82    492
85.84    484
85.86    486
85.88    441
85.9     428
85.92    408
85.94    384
85.96    438
85.98    477
86.0     483
86.02    514
86.04    510
86.06    473
86.08    402
86.1     418
86.12    409
86.14    477
86.16    551
86.18    621
86.2     714
86.22    740
86.24    753
86.26    698
86.28    660
86.3     715
86.32    774
86.34    905
86.36    1021
86.38    1134
86.4     1228
86.42    1266
86.44    1277
86.46    1155
86.48    1066
86.5     1018
86.52    953
86.54    932
86.56    921
86.58    895
86.6     893
86.62    834
86.64    715
86.66    603
86.68    519
86.7     494
86.72    445
86.74    486
86.76    472
86.78    490
86.8     490
86.82    464
86.84    513
86.86    492
86.88    453
86.9     533
86.92    572
86.94    662
86.96    603
86.98    554
87.0     489
87.02    442
87.04    426
87.06    274
87.08    240
87.1     315
87.12    348
87.14    381
87.16    359
87.18    284
87.2     263
87.22    229
87.24    259
87.26    278
87.28    391
87.3     475
87.32    561
87.34    608
87.36    549
87.38    468
87.4     423
87.42    395
87.44    440
87.46    465
87.48    474
87.5     503
87.52    514
87.54    511
87.56    497
87.58    459
87.6     399
87.62    361
87.64    377
87.66    441
87.68    490
87.7     457
87.72    403
87.74    448
87.76    492
87.78    440
87.8     413
87.82    446
87.84    463
87.86    585
87.88    586
87.9     485
87.92    458
87.94    413
87.96    363
87.98    325
88.0     333
88.02    359
88.04    308
88.06    323
88.08    309
88.1     328
88.12    368
88.14    329
88.16    328
88.18    414
88.2     432
88.22    463
88.24    431
88.26    403
88.28    464
88.3     486
88.32    528
88.34    490
88.36    475
88.38    470
88.4     411
88.42    379
88.44    358
88.46    349
88.48    377
88.5     334
88.52    392
88.54    356
88.56    272
88.58    237
88.6     183
88.62    205
88.64    286
88.66    305
88.68    362
88.7     415
88.72    506
88.74    526
88.76    466
88.78    468
88.8     389
88.82    435
88.84    453
88.86    420
88.88    492
88.9     494
88.92    519
88.94    507
88.96    440
88.98    409
89.0     390
89.02    382
89.04    339
89.06    320
89.08    382
89.1     330
89.12    314
89.14    296
89.16    282
89.18    268
89.2     314
89.22    307
89.24    358
89.26    475
89.28    563
89.3     615
89.32    624
89.34    612
89.36    549
89.38    494
89.4     506
89.42    479
89.44    541
89.46    613
89.48    624
89.5     665
89.52    572
89.54    468
89.56    372
89.58    302
89.6     279
89.62    283
89.64    367
89.66    399
89.68    445
89.7     530
89.72    520
89.74    483
89.76    399
89.78    315
89.8     327
89.82    381
89.84    443
89.86    480
89.88    505
89.9     467
89.92    475
89.94    425
89.96    536
89.98    499
90.0     492
