?
5.0      620
5.02     620
5.04     803
5.06     764
5.08     771
5.1      727
5.12     698
5.14     724
5.16     753
5.18     730
5.2      795
5.22     765
5.24     784
5.26     755
5.28     737
5.3      706
5.32     685
5.34     699
5.36     689
5.38     720
5.4      736
5.42     714
5.44     726
5.46     765
5.48     776
5.5      815
5.52     781
5.54     777
5.56     738
5.58     749
5.6      717
5.62     719
5.64     741
5.66     742
5.68     737
5.7      812
5.72     781
5.74     781
5.76     738
5.78     723
5.8      732
5.82     774
5.84     778
5.86     766
5.88     788
5.9      817
5.92     815
5.94     831
5.96     800
5.98     807
6.0      812
6.02     853
6.04     817
6.06     811
6.08     760
6.1      760
6.12     764
6.14     767
6.16     735
6.18     740
6.2      708
6.22     745
6.24     702
6.26     725
6.28     677
6.3      738
6.32     760
6.34     789
6.36     798
6.38     834
6.4      820
6.42     826
6.44     790
6.46     780
6.48     722
6.5      696
6.52     684
6.54     657
6.56     663
6.58     687
6.6      702
6.62     731
6.64     728
6.66     748
6.68     781
6.7      781
6.72     782
6.74     719
6.76     727
6.78     739
6.8      715
6.82     734
6.84     655
6.86     687
6.88     708
6.9      707
6.92     685
6.94     701
6.96     720
6.98     747
7.0      781
7.02     793
7.04     741
7.06     757
7.08     719
7.1      709
7.12     685
7.14     678
7.16     617
7.18     634
7.2      690
7.22     702
7.24     692
7.26     713
7.28     725
7.3      749
7.32     769
7.34     779
7.36     744
7.38     763
7.4      792
7.42     770
7.44     777
7.46     769
7.48     725
7.5      704
7.52     683
7.54     669
7.56     624
7.58     624
7.6      659
7.62     661
7.64     727
7.66     728
7.68     730
7.7      733
7.72     720
7.74     744
7.76     699
7.78     728
7.8      707
7.82     682
7.84     681
7.86     675
7.88     646
7.9      632
7.92     650
7.94     645
7.96     652
7.98     669
8.0      660
8.02     676
8.04     754
8.06     748
8.08     741
8.1      732
8.12     747
8.14     727
8.16     670
8.18     645
8.2      590
8.22     575
8.24     639
8.26     657
8.28     612
8.3      636
8.32     666
8.34     725
8.36     712
8.38     764
8.4      684
8.42     659
8.44     678
8.46     658
8.48     543
8.5      558
8.52     568
8.54     579
8.56     594
8.58     635
8.6      601
8.62     639
8.64     689
8.66     680
8.68     654
8.7      650
8.72     639
8.74     604
8.76     605
8.78     589
8.8      587
8.82     616
8.84     643
8.86     659
8.88     637
8.9      578
8.92     616
8.94     620
8.96     595
8.98     567
9.0      603
9.02     629
9.04     638
9.06     676
9.08     617
9.1      592
9.12     637
9.14     623
9.16     603
9.18     588
9.2      613
9.22     633
9.24     598
9.26     595
9.28     580
9.3      615
9.32     603
9.34     601
9.36     599
9.38     598
9.4      585
9.42     577
9.44     546
9.46     523
9.48     535
9.5      544
9.52     506
9.54     496
9.56     490
9.58     450
9.6      430
9.62     438
9.64     472
9.66     461
9.68     431
9.7      469
9.72     455
9.74     466
9.76     478
9.78     450
9.8      477
9.82     520
9.84     557
9.86     529
9.88     521
9.9      528
9.92     484
9.94     497
9.96     492
9.98     459
10.0     492
10.02    488
10.04    498
10.06    473
10.08    465
10.1     461
10.12    453
10.14    455
10.16    466
10.18    462
10.2     510
10.22    477
10.24    464
10.26    450
10.28    465
10.3     469
10.32    449
10.34    441
10.36    477
10.38    483
10.4     519
10.42    472
10.44    450
10.46    426
10.48    454
10.5     450
10.52    434
10.54    468
10.56    509
10.58    532
10.6     558
10.62    495
10.64    492
10.66    446
10.68    499
10.7     497
10.72    517
10.74    530
10.76    546
10.78    519
10.8     582
10.82    522
10.84    510
10.86    442
10.88    463
10.9     483
10.92    517
10.94    480
10.96    503
10.98    461
11.0     537
11.02    472
11.04    442
11.06    464
11.08    521
11.1     532
11.12    515
11.14    504
11.16    525
11.18    519
11.2     541
11.22    541
11.24    517
11.26    553
11.28    535
11.3     476
11.32    486
11.34    465
11.36    490
11.38    544
11.4     553
11.42    563
11.44    574
11.46    581
11.48    568
11.5     539
11.52    552
11.54    492
11.56    530
11.58    517
11.6     484
11.62    539
11.64    562
11.66    553
11.68    515
11.7     435
11.72    467
11.74    496
11.76    529
11.78    540
11.8     617
11.82    728
11.84    684
11.86    690
11.88    597
11.9     528
11.92    513
11.94    524
11.96    477
11.98    487
12.0     533
12.02    576
12.04    547
12.06    572
12.08    586
12.1     557
12.12    513
12.14    560
12.16    566
12.18    594
12.2     600
12.22    621
12.24    575
12.26    526
12.28    517
12.3     451
12.32    417
12.34    396
12.36    472
12.38    542
12.4     586
12.42    623
12.44    617
12.46    648
12.48    635
12.5     614
12.52    569
12.54    497
12.56    556
12.58    550
12.6     548
12.62    551
12.64    559
12.66    590
12.68    552
12.7     526
12.72    522
12.74    507
12.76    554
12.78    536
12.8     560
12.82    572
12.84    566
12.86    562
12.88    560
12.9     600
12.92    603
12.94    592
12.96    619
12.98    565
13.0     529
13.02    534
13.04    515
13.06    530
13.08    553
13.1     601
13.12    596
13.14    601
13.16    576
13.18    514
13.2     515
13.22    555
13.24    538
13.26    534
13.28    496
13.3     575
13.32    625
13.34    621
13.36    582
13.38    599
13.4     602
13.42    569
13.44    566
13.46    580
13.48    532
13.5     596
13.52    551
13.54    570
13.56    578
13.58    572
13.6     586
13.62    569
13.64    596
13.66    615
13.68    573
13.7     569
13.72    535
13.74    623
13.76    614
13.78    615
13.8     707
13.82    660
13.84    635
13.86    658
13.88    703
13.9     721
13.92    718
13.94    715
13.96    699
13.98    693
14.0     721
14.02    657
14.04    612
14.06    618
14.08    671
14.1     679
14.12    649
14.14    660
14.16    650
14.18    663
14.2     744
14.22    724
14.24    650
14.26    661
14.28    674
14.3     649
14.32    590
14.34    598
14.36    520
14.38    574
14.4     680
14.42    679
14.44    613
14.46    686
14.48    699
14.5     675
14.52    656
14.54    674
14.56    650
14.58    692
14.6     725
14.62    733
14.64    686
14.66    702
14.68    685
14.7     683
14.72    683
14.74    707
14.76    728
14.78    729
14.8     732
14.82    769
14.84    803
14.86    819
14.88    840
14.9     929
14.92    991
14.94    1028
14.96    1061
14.98    1087
15.0     1060
15.02    1054
15.04    1055
15.06    989
15.08    945
15.1     954
15.12    918
15.14    836
15.16    811
15.18    842
15.2     808
15.22    878
15.24    914
15.26    909
15.28    887
15.3     888
15.32    906
15.34    858
15.36    812
15.38    844
15.4     860
15.42    889
15.44    896
15.46    882
15.48    851
15.5     882
15.52    944
15.54    931
15.56    897
15.58    932
15.6     957
15.62    938
15.64    950
15.66    947
15.68    959
15.7     970
15.72    988
15.74    1003
15.76    998
15.78    1049
15.8     1043
15.82    985
15.84    993
15.86    1062
15.88    1168
15.9     1197
15.92    1271
15.94    1384
15.96    1441
15.98    1488
16.0     1509
16.02    1518
16.04    1610
16.06    1734
16.08    1840
16.1     1917
16.12    2095
16.14    2229
16.16    2346
16.18    2533
16.2     2752
16.22    3008
16.24    3341
16.26    3686
16.28    4095
16.3     4679
16.32    5395
16.34    6183
16.36    7141
16.38    8357
16.4     9860
16.42    11725
16.44    14109
16.46    17174
16.48    21048
16.5     25777
16.52    31048
16.54    36265
16.56    40379
16.58    42342
16.6     41619
16.62    38152
16.64    32649
16.66    26039
16.68    19334
16.7     13573
16.72    9315
16.74    6714
16.76    5212
16.78    4263
16.8     3662
16.82    3182
16.84    2829
16.86    2546
16.88    2325
16.9     2188
16.92    2002
16.94    1875
16.96    1784
16.98    1702
17.0     1662
17.02    1560
17.04    1517
17.06    1457
17.08    1474
17.1     1512
17.12    1418
17.14    1381
17.16    1369
17.18    1277
17.2     1242
17.22    1218
17.24    1240
17.26    1227
17.28    1229
17.3     1278
17.32    1269
17.34    1265
17.36    1184
17.38    1157
17.4     1203
17.42    1189
17.44    1144
17.46    1067
17.48    1036
17.5     1104
17.52    1074
17.54    1018
17.56    1091
17.58    1193
17.6     1195
17.62    1159
17.64    1127
17.66    1125
17.68    1164
17.7     1206
17.72    1171
17.74    1173
17.76    1262
17.78    1232
17.8     1164
17.82    1123
17.84    1095
17.86    1057
17.88    1037
17.9     1044
17.92    1048
17.94    1041
17.96    1050
17.98    1047
18.0     1062
18.02    1036
18.04    941
18.06    891
18.08    956
18.1     1022
18.12    1075
18.14    1078
18.16    1142
18.18    1148
18.2     1078
18.22    1049
18.24    962
18.26    932
18.28    970
18.3     971
18.32    1007
18.34    1024
18.36    1078
18.38    991
18.4     917
18.42    981
18.44    1002
18.46    1004
18.48    1027
18.5     1043
18.52    1116
18.54    1074
18.56    1019
18.58    957
18.6     952
18.62    944
18.64    938
18.66    933
18.68    987
18.7     1025
18.72    1013
18.74    965
18.76    951
18.78    999
18.8     996
18.82    973
18.84    958
18.86    972
18.88    1040
18.9     1001
18.92    930
18.94    926
18.96    908
18.98    931
19.0     951
19.02    978
19.04    969
19.06    1000
19.08    1041
19.1     1010
19.12    955
19.14    933
19.16    848
19.18    855
19.2     849
19.22    873
19.24    948
19.26    1037
19.28    1075
19.3     1054
19.32    991
19.34    993
19.36    955
19.38    942
19.4     905
19.42    885
19.44    919
19.46    980
19.48    971
19.5     930
19.52    923
19.54    918
19.56    929
19.58    926
19.6     931
19.62    873
19.64    885
19.66    936
19.68    924
19.7     878
19.72    827
19.74    751
19.76    778
19.78    849
19.8     942
19.82    926
19.84    963
19.86    964
19.88    968
19.9     904
19.92    850
19.94    760
19.96    735
19.98    795
20.0     919
20.02    995
20.04    1033
20.06    1018
20.08    996
20.1     936
20.12    950
20.14    855
20.16    806
20.18    843
20.2     913
20.22    985
20.24    976
20.26    961
20.28    931
20.3     900
20.32    937
20.34    853
20.36    842
20.38    889
20.4     910
20.42    939
20.44    980
20.46    979
20.48    960
20.5     897
20.52    883
20.54    908
20.56    952
20.58    986
20.6     921
20.62    865
20.64    902
20.66    931
20.68    916
20.7     890
20.72    944
20.74    1010
20.76    982
20.78    992
20.8     941
20.82    945
20.84    915
20.86    904
20.88    929
20.9     951
20.92    903
20.94    818
20.96    768
20.98    780
21.0     833
21.02    859
21.04    787
21.06    767
21.08    798
21.1     836
21.12    781
21.14    781
21.16    749
21.18    726
21.2     808
21.22    780
21.24    773
21.26    774
21.28    794
21.3     831
21.32    861
21.34    892
21.36    818
21.38    768
21.4     758
21.42    698
21.44    728
21.46    759
21.48    786
21.5     767
21.52    729
21.54    740
21.56    789
21.58    775
21.6     796
21.62    815
21.64    848
21.66    866
21.68    888
21.7     863
21.72    784
21.74    773
21.76    755
21.78    655
21.8     669
21.82    678
21.84    685
21.86    714
21.88    762
21.9     819
21.92    796
21.94    806
21.96    842
21.98    823
22.0     846
22.02    837
22.04    832
22.06    842
22.08    825
22.1     744
22.12    649
22.14    599
22.16    630
22.18    621
22.2     680
22.22    718
22.24    757
22.26    752
22.28    746
22.3     732
22.32    709
22.34    681
22.36    686
22.38    676
22.4     693
22.42    678
22.44    693
22.46    701
22.48    708
22.5     764
22.52    739
22.54    739
22.56    722
22.58    710
22.6     748
22.62    815
22.64    863
22.66    849
22.68    770
22.7     710
22.72    591
22.74    552
22.76    553
22.78    570
22.8     587
22.82    619
22.84    632
22.86    627
22.88    603
22.9     590
22.92    596
22.94    659
22.96    672
22.98    650
23.0     581
23.02    604
23.04    641
23.06    670
23.08    687
23.1     661
23.12    686
23.14    730
23.16    741
23.18    766
23.2     785
23.22    771
23.24    752
23.26    747
23.28    707
23.3     634
23.32    594
23.34    613
23.36    682
23.38    748
23.4     793
23.42    705
23.44    722
23.46    695
23.48    664
23.5     632
23.52    589
23.54    600
23.56    645
23.58    709
23.6     700
23.62    623
23.64    675
23.66    635
23.68    640
23.7     619
23.72    580
23.74    562
23.76    573
23.78    622
23.8     580
23.82    554
23.84    570
23.86    591
23.88    617
23.9     602
23.92    562
23.94    559
23.96    591
23.98    648
24.0     710
24.02    746
24.04    764
24.06    760
24.08    659
24.1     557
24.12    492
24.14    505
24.16    526
24.18    642
24.2     673
24.22    694
24.24    684
24.26    701
24.28    672
24.3     647
24.32    573
24.34    559
24.36    559
24.38    604
24.4     497
24.42    490
24.44    483
24.46    590
24.48    634
24.5     660
24.52    610
24.54    593
24.56    582
24.58    566
24.6     534
24.62    571
24.64    584
24.66    596
24.68    573
24.7     583
24.72    609
24.74    569
24.76    573
24.78    537
24.8     537
24.82    543
24.84    572
24.86    611
24.88    659
24.9     610
24.92    613
24.94    550
24.96    601
24.98    562
25.0     569
25.02    503
25.04    553
25.06    600
25.08    649
25.1     589
25.12    563
25.14    524
25.16    582
25.18    580
25.2     590
25.22    497
25.24    485
25.26    463
25.28    525
25.3     550
25.32    540
25.34    558
25.36    590
25.38    622
25.4     610
25.42    532
25.44    491
25.46    548
25.48    613
25.5     600
25.52    598
25.54    580
25.56    574
25.58    557
25.6     568
25.62    571
25.64    560
25.66    614
25.68    609
25.7     624
25.72    640
25.74    636
25.76    622
25.78    632
25.8     664
25.82    646
25.84    612
25.86    573
25.88    542
25.9     573
25.92    522
25.94    552
25.96    546
25.98    608
26.0     556
26.02    550
26.04    509
26.06    487
26.08    468
26.1     474
26.12    467
26.14    516
26.16    560
26.18    583
26.2     543
26.22    459
26.24    434
26.26    432
26.28    485
26.3     495
26.32    558
26.34    565
26.36    612
26.38    571
26.4     586
26.42    505
26.44    524
26.46    467
26.48    464
26.5     448
26.52    501
26.54    522
26.56    536
26.58    536
26.6     569
26.62    539
26.64    543
26.66    513
26.68    472
26.7     510
26.72    506
26.74    518
26.76    482
26.78    483
26.8     469
26.82    438
26.84    430
26.86    461
26.88    488
26.9     535
26.92    554
26.94    587
26.96    480
26.98    484
27.0     451
27.02    451
27.04    481
27.06    570
27.08    613
27.1     597
27.12    575
27.14    501
27.16    372
27.18    357
27.2     295
27.22    354
27.24    427
27.26    512
27.28    596
27.3     550
27.32    533
27.34    437
27.36    434
27.38    458
27.4     443
27.42    521
27.44    570
27.46    585
27.48    590
27.5     502
27.52    440
27.54    395
27.56    409
27.58    395
27.6     402
27.62    486
27.64    482
27.66    478
27.68    469
27.7     496
27.72    518
27.74    611
27.76    591
27.78    566
27.8     564
27.82    485
27.84    406
27.86    406
27.88    385
27.9     475
27.92    508
27.94    530
27.96    528
27.98    541
28.0     509
28.02    419
28.04    391
28.06    421
28.08    451
28.1     599
28.12    616
28.14    582
28.16    595
28.18    560
28.2     536
28.22    468
28.24    467
28.26    470
28.28    491
28.3     504
28.32    452
28.34    390
28.36    347
28.38    313
28.4     326
28.42    434
28.44    476
28.46    515
28.48    565
28.5     523
28.52    533
28.54    504
28.56    461
28.58    436
28.6     374
28.62    439
28.64    338
28.66    384
28.68    480
28.7     526
28.72    601
28.74    630
28.76    610
28.78    569
28.8     498
28.82    500
28.84    440
28.86    449
28.88    484
28.9     422
28.92    434
28.94    395
28.96    399
28.98    408
29.0     406
29.02    475
29.04    499
29.06    514
29.08    549
29.1     524
29.12    582
29.14    522
29.16    504
29.18    430
29.2     405
29.22    431
29.24    424
29.26    468
29.28    506
29.3     545
29.32    583
29.34    516
29.36    458
29.38    390
29.4     410
29.42    481
29.44    534
29.46    573
29.48    575
29.5     593
29.52    599
29.54    565
29.56    546
29.58    506
29.6     512
29.62    512
29.64    405
29.66    364
29.68    360
29.7     395
29.72    485
29.74    523
29.76    502
29.78    472
29.8     460
29.82    373
29.84    306
29.86    359
29.88    441
29.9     554
29.92    612
29.94    631
29.96    538
29.98    444
30.0     433
30.02    385
30.04    438
30.06    467
30.08    544
30.1     639
30.12    663
30.14    681
30.16    637
30.18    533
30.2     532
30.22    499
30.24    506
30.26    493
30.28    490
30.3     512
30.32    499
30.34    455
30.36    458
30.38    381
30.4     356
30.42    377
30.44    388
30.46    405
30.48    370
30.5     400
30.52    408
30.54    398
30.56    453
30.58    425
30.6     382
30.62    416
30.64    395
30.66    394
30.68    397
30.7     405
30.72    367
30.74    331
30.76    387
30.78    386
30.8     414
30.82    440
30.84    426
30.86    446
30.88    479
30.9     503
30.92    491
30.94    482
30.96    492
30.98    462
31.0     467
31.02    453
31.04    389
31.06    350
31.08    329
31.1     340
31.12    390
31.14    420
31.16    422
31.18    398
31.2     426
31.22    430
31.24    381
31.26    388
31.28    388
31.3     413
31.32    486
31.34    489
31.36    483
31.38    460
31.4     459
31.42    451
31.44    437
31.46    464
31.48    503
31.5     558
31.52    555
31.54    533
31.56    484
31.58    438
31.6     507
31.62    544
31.64    580
31.66    605
31.68    573
31.7     517
31.72    397
31.74    342
31.76    265
31.78    283
31.8     435
31.82    463
31.84    547
31.86    528
31.88    430
31.9     339
31.92    308
31.94    288
31.96    328
31.98    400
32.0     460
32.02    514
32.04    574
32.06    592
32.08    602
32.1     571
32.12    540
32.14    466
32.16    435
32.18    401
32.2     380
32.22    409
32.24    481
32.26    590
32.28    640
32.3     665
32.32    630
32.34    573
32.36    591
32.38    568
32.4     555
32.42    556
32.44    537
32.46    530
32.48    496
32.5     535
32.52    569
32.54    562
32.56    589
32.58    543
32.6     484
32.62    409
32.64    339
32.66    318
32.68    407
32.7     506
32.72    609
32.74    692
32.76    716
32.78    690
32.8     619
32.82    555
32.84    579
32.86    560
32.88    636
32.9     566
32.92    571
32.94    602
32.96    578
32.98    580
33.0     581
33.02    570
33.04    606
33.06    640
33.08    694
33.1     666
33.12    663
33.14    679
33.16    667
33.18    692
33.2     738
33.22    772
33.24    850
33.26    957
33.28    1018
33.3     1099
33.32    1159
33.34    1318
33.36    1474
33.38    1655
33.4     1965
33.42    2374
33.44    2945
33.46    3672
33.48    4649
33.5     5895
33.52    7339
33.54    8838
33.56    9953
33.58    10649
33.6     10715
33.62    10127
33.64    9001
33.66    7573
33.68    6047
33.7     4705
33.72    3616
33.74    2796
33.76    2160
33.78    1828
33.8     1519
33.82    1317
33.84    1155
33.86    1080
33.88    960
33.9     930
33.92    858
33.94    810
33.96    766
33.98    742
34.0     688
34.02    693
34.04    635
34.06    660
34.08    674
34.1     731
34.12    738
34.14    747
34.16    734
34.18    733
34.2     747
34.22    752
34.24    653
34.26    611
34.28    564
34.3     565
34.32    474
34.34    493
34.36    566
34.38    647
34.4     735
34.42    773
34.44    747
34.46    691
34.48    593
34.5     556
34.52    476
34.54    515
34.56    606
34.58    626
34.6     686
34.62    733
34.64    731
34.66    732
34.68    710
34.7     678
34.72    692
34.74    671
34.76    710
34.78    730
34.8     798
34.82    903
34.84    988
34.86    1071
34.88    1158
34.9     1223
34.92    1401
34.94    1607
34.96    2048
34.98    2714
35.0     3700
35.02    5050
35.04    6648
35.06    8401
35.08    10011
35.1     10990
35.12    11254
35.14    10727
35.16    9440
35.18    7760
35.2     5924
35.22    4227
35.24    2961
35.26    2207
35.28    1721
35.3     1354
35.32    1167
35.34    1071
35.36    948
35.38    989
35.4     944
35.42    925
35.44    926
35.46    924
35.48    855
35.5     839
35.52    778
35.54    777
35.56    754
35.58    798
35.6     750
35.62    716
35.64    687
35.66    634
35.68    559
35.7     590
35.72    604
35.74    643
35.76    663
35.78    706
35.8     669
35.82    595
35.84    592
35.86    589
35.88    598
35.9     725
35.92    848
35.94    910
35.96    932
35.98    930
36.0     853
36.02    780
36.04    787
36.06    813
36.08    821
36.1     928
36.12    1053
36.14    1196
36.16    1291
36.18    1412
36.2     1563
36.22    1747
36.24    2012
36.26    2407
36.28    2863
36.3     3503
36.32    4422
36.34    5770
36.36    7654
36.38    10264
36.4     13675
36.42    17385
36.44    20793
36.46    23198
36.48    23916
36.5     22921
36.52    20405
36.54    16863
36.56    12965
36.58    9396
36.6     6674
36.62    4801
36.64    3599
36.66    2777
36.68    2167
36.7     1843
36.72    1592
36.74    1446
36.76    1422
36.78    1340
36.8     1323
36.82    1320
36.84    1216
36.86    1068
36.88    1035
36.9     966
36.92    885
36.94    823
36.96    820
36.98    734
37.0     752
37.02    734
37.04    713
37.06    719
37.08    775
37.1     747
37.12    741
37.14    708
37.16    740
37.18    674
37.2     695
37.22    732
37.24    781
37.26    823
37.28    895
37.3     927
37.32    956
37.34    989
37.36    1025
37.38    928
37.4     913
37.42    871
37.44    807
37.46    762
37.48    780
37.5     724
37.52    756
37.54    724
37.56    673
37.58    610
37.6     612
37.62    583
37.64    557
37.66    498
37.68    538
37.7     476
37.72    481
37.74    404
37.76    399
37.78    425
37.8     506
37.82    543
37.84    592
37.86    629
37.88    682
37.9     638
37.92    576
37.94    535
37.96    502
37.98    498
38.0     552
38.02    546
38.04    553
38.06    575
38.08    516
38.1     466
38.12    420
38.14    415
38.16    409
38.18    432
38.2     487
38.22    527
38.24    562
38.26    585
38.28    564
38.3     558
38.32    556
38.34    453
38.36    452
38.38    385
38.4     373
38.42    332
38.44    384
38.46    408
38.48    472
38.5     474
38.52    562
38.54    484
38.56    524
38.58    510
38.6     582
38.62    586
38.64    645
38.66    621
38.68    593
38.7     478
38.72    435
38.74    336
38.76    348
38.78    421
38.8     529
38.82    557
38.84    601
38.86    590
38.88    524
38.9     417
38.92    422
38.94    375
38.96    385
38.98    395
39.0     410
39.02    477
39.04    593
39.06    620
39.08    657
39.1     682
39.12    686
39.14    564
39.16    479
39.18    408
39.2     374
39.22    451
39.24    552
39.26    610
39.28    642
39.3     641
39.32    493
39.34    402
39.36    294
39.38    295
39.4     314
39.42    454
39.44    587
39.46    617
39.48    612
39.5     665
39.52    560
39.54    508
39.56    474
39.58    455
39.6     457
39.62    485
39.64    491
39.66    430
39.68    495
39.7     565
39.72    563
39.74    584
39.76    642
39.78    617
39.8     609
39.82    602
39.84    568
39.86    545
39.88    547
39.9     561
39.92    558
39.94    601
39.96    696
39.98    677
40.0     678
40.02    668
40.04    666
40.06    649
40.08    646
40.1     692
40.12    726
40.14    774
40.16    822
40.18    766
40.2     780
40.22    733
40.24    733
40.26    708
40.28    761
40.3     818
40.32    882
40.34    924
40.36    962
40.38    909
40.4     874
40.42    777
40.44    722
40.46    696
40.48    711
40.5     766
40.52    835
40.54    901
40.56    946
40.58    960
40.6     992
40.62    1016
40.64    1031
40.66    1084
40.68    1161
40.7     1143
40.72    1109
40.74    1040
40.76    997
40.78    1010
40.8     1026
40.82    1078
40.84    1096
40.86    1241
40.88    1324
40.9     1345
40.92    1424
40.94    1412
40.96    1473
40.98    1519
41.0     1561
41.02    1675
41.04    1793
41.06    1994
41.08    2131
41.1     2321
41.12    2448
41.14    2537
41.16    2755
41.18    2982
41.2     3257
41.22    3651
41.24    4224
41.26    4993
41.28    5834
41.3     6918
41.32    8153
41.34    9786
41.36    11946
41.38    14862
41.4     18840
41.42    24334
41.44    31850
41.46    41340
41.48    52145
41.5     63041
41.52    71885
41.54    77107
41.56    77468
41.58    72932
41.6     64342
41.62    53346
41.64    41767
41.66    31372
41.68    23122
41.7     17259
41.72    13134
41.74    10350
41.76    8356
41.78    6928
41.8     5914
41.82    5187
41.84    4539
41.86    4041
41.88    3600
41.9     3260
41.92    2932
41.94    2616
41.96    2382
41.98    2164
42.0     2045
42.02    1925
42.04    1772
42.06    1660
42.08    1611
42.1     1546
42.12    1500
42.14    1391
42.16    1407
42.18    1397
42.2     1353
42.22    1330
42.24    1299
42.26    1211
42.28    1102
42.3     990
42.32    923
42.34    890
42.36    964
42.38    998
42.4     1056
42.42    1173
42.44    1255
42.46    1189
42.48    1059
42.5     961
42.52    898
42.54    823
42.56    741
42.58    795
42.6     873
42.62    923
42.64    916
42.66    905
42.68    793
42.7     730
42.72    687
42.74    640
42.76    620
42.78    752
42.8     814
42.82    827
42.84    849
42.86    822
42.88    692
42.9     642
42.92    620
42.94    648
42.96    676
42.98    790
43.0     823
43.02    827
43.04    820
43.06    738
43.08    693
43.1     662
43.12    692
43.14    752
43.16    810
43.18    828
43.2     783
43.22    772
43.24    714
43.26    671
43.28    640
43.3     617
43.32    607
43.34    632
43.36    641
43.38    621
43.4     654
43.42    726
43.44    789
43.46    836
43.48    822
43.5     838
43.52    762
43.54    726
43.56    598
43.58    519
43.6     486
43.62    480
43.64    544
43.66    547
43.68    608
43.7     690
43.72    720
43.74    737
43.76    690
43.78    706
43.8     657
43.82    637
43.84    621
43.86    561
43.88    597
43.9     626
43.92    641
43.94    701
43.96    718
43.98    728
44.0     666
44.02    669
44.04    597
44.06    478
44.08    466
44.1     420
44.12    376
44.14    378
44.16    343
44.18    426
44.2     463
44.22    531
44.24    525
44.26    543
44.28    608
44.3     615
44.32    565
44.34    536
44.36    563
44.38    687
44.4     712
44.42    705
44.44    678
44.46    709
44.48    705
44.5     659
44.52    543
44.54    509
44.56    494
44.58    479
44.6     479
44.62    434
44.64    485
44.66    507
44.68    518
44.7     574
44.72    639
44.74    695
44.76    641
44.78    702
44.8     730
44.82    691
44.84    714
44.86    725
44.88    744
44.9     836
44.92    964
44.94    1086
44.96    1210
44.98    1445
45.0     1565
45.02    1706
45.04    1778
45.06    1821
45.08    1684
45.1     1552
45.12    1452
45.14    1284
45.16    1145
45.18    1009
45.2     897
45.22    838
45.24    668
45.26    590
45.28    492
45.3     497
45.32    462
45.34    462
45.36    538
45.38    613
45.4     710
45.42    693
45.44    676
45.46    666
45.48    568
45.5     501
45.52    348
45.54    323
45.56    335
45.58    381
45.6     467
45.62    495
45.64    585
45.66    554
45.68    512
45.7     482
45.72    381
45.74    348
45.76    309
45.78    374
45.8     457
45.82    565
45.84    639
45.86    661
45.88    768
45.9     728
45.92    648
45.94    601
45.96    554
45.98    535
46.0     482
46.02    465
46.04    472
46.06    470
46.08    489
46.1     506
46.12    580
46.14    659
46.16    625
46.18    608
46.2     571
46.22    569
46.24    515
46.26    449
46.28    407
46.3     437
46.32    452
46.34    436
46.36    380
46.38    413
46.4     416
46.42    477
46.44    446
46.46    494
46.48    489
46.5     508
46.52    499
46.54    516
46.56    510
46.58    489
46.6     523
46.62    574
46.64    556
46.66    579
46.68    607
46.7     613
46.72    576
46.74    524
46.76    469
46.78    332
46.8     307
46.82    297
46.84    268
46.86    310
46.88    342
46.9     388
46.92    448
46.94    481
46.96    536
46.98    504
47.0     574
47.02    602
47.04    548
47.06    515
47.08    418
47.1     434
47.12    397
47.14    365
47.16    382
47.18    449
47.2     465
47.22    445
47.24    405
47.26    397
47.28    394
47.3     436
47.32    458
47.34    509
47.36    536
47.38    575
47.4     466
47.42    411
47.44    383
47.46    357
47.48    409
47.5     446
47.52    491
47.54    569
47.56    589
47.58    613
47.6     469
47.62    438
47.64    445
47.66    430
47.68    475
47.7     467
47.72    492
47.74    557
47.76    584
47.78    579
47.8     499
47.82    516
47.84    480
47.86    428
47.88    462
47.9     514
47.92    539
47.94    600
47.96    651
47.98    688
48.0     673
48.02    637
48.04    639
48.06    592
48.08    578
48.1     624
48.12    546
48.14    549
48.16    498
48.18    496
48.2     471
48.22    467
48.24    560
48.26    504
48.28    488
48.3     481
48.32    425
48.34    388
48.36    397
48.38    489
48.4     571
48.42    621
48.44    658
48.46    679
48.48    662
48.5     597
48.52    514
48.54    408
48.56    427
48.58    493
48.6     525
48.62    543
48.64    578
48.66    622
48.68    605
48.7     577
48.72    518
48.74    447
48.76    454
48.78    487
48.8     493
48.82    500
48.84    502
48.86    477
48.88    492
48.9     476
48.92    510
48.94    512
48.96    543
48.98    600
49.0     675
49.02    660
49.04    656
49.06    624
49.08    569
49.1     491
49.12    401
49.14    347
49.16    314
49.18    332
49.2     387
49.22    413
49.24    512
49.26    592
49.28    600
49.3     570
49.32    468
49.34    388
49.36    360
49.38    272
49.4     242
49.42    265
49.44    337
49.46    460
49.48    476
49.5     503
49.52    516
49.54    466
49.56    459
49.58    367
49.6     290
49.62    321
49.64    387
49.66    426
49.68    413
49.7     444
49.72    483
49.74    493
49.76    489
49.78    405
49.8     374
49.82    435
49.84    412
49.86    337
49.88    300
49.9     303
49.92    372
49.94    442
49.96    459
49.98    442
50.0     513
50.02    551
50.04    513
50.06    480
50.08    497
50.1     535
50.12    553
50.14    534
50.16    518
50.18    534
50.2     504
50.22    488
50.24    436
50.26    414
50.28    418
50.3     469
50.32    452
50.34    468
50.36    544
50.38    601
50.4     579
50.42    584
50.44    541
50.46    496
50.48    455
50.5     514
50.52    479
50.54    453
50.56    488
50.58    524
50.6     547
50.62    539
50.64    516
50.66    467
50.68    478
50.7     475
50.72    433
50.74    386
50.76    399
50.78    373
50.8     427
50.82    426
50.84    486
50.86    478
50.88    490
50.9     472
50.92    461
50.94    400
50.96    382
50.98    353
51.0     419
51.02    401
51.04    440
51.06    469
51.08    488
51.1     471
51.12    489
51.14    433
51.16    478
51.18    497
51.2     446
51.22    378
51.24    373
51.26    376
51.28    385
51.3     388
51.32    450
51.34    513
51.36    640
51.38    696
51.4     652
51.42    626
51.44    580
51.46    510
51.48    415
51.5     318
51.52    273
51.54    294
51.56    346
51.58    395
51.6     412
51.62    558
51.64    632
51.66    698
51.68    641
51.7     620
51.72    623
51.74    583
51.76    523
51.78    465
51.8     398
51.82    470
51.84    502
51.86    565
51.88    561
51.9     574
51.92    632
51.94    605
51.96    545
51.98    499
52.0     411
52.02    392
52.04    399
52.06    420
52.08    419
52.1     428
52.12    460
52.14    510
52.16    601
52.18    605
52.2     591
52.22    623
52.24    622
52.26    637
52.28    604
52.3     534
52.32    526
52.34    612
52.36    646
52.38    592
52.4     589
52.42    602
52.44    629
52.46    667
52.48    593
52.5     585
52.52    561
52.54    573
52.56    517
52.58    453
52.6     412
52.62    452
52.64    499
52.66    538
52.68    558
52.7     576
52.72    546
52.74    585
52.76    581
52.78    556
52.8     515
52.82    557
52.84    548
52.86    589
52.88    612
52.9     591
52.92    607
52.94    647
52.96    646
52.98    612
53.0     600
53.02    620
53.04    631
53.06    694
53.08    688
53.1     779
53.12    847
53.14    941
53.16    1052
53.18    1154
53.2     1235
53.22    1259
53.24    1339
53.26    1382
53.28    1497
53.3     1693
53.32    1943
53.34    2373
53.36    2991
53.38    3692
53.4     4453
53.42    5197
53.44    5883
53.46    6366
53.48    6642
53.5     6508
53.52    6075
53.54    5415
53.56    4689
53.58    3914
53.6     3176
53.62    2525
53.64    2008
53.66    1734
53.68    1551
53.7     1386
53.72    1283
53.74    1175
53.76    1143
53.78    1076
53.8     1026
53.82    941
53.84    897
53.86    926
53.88    901
53.9     867
53.92    883
53.94    825
53.96    788
53.98    742
54.0     698
54.02    677
54.04    654
54.06    637
54.08    547
54.1     495
54.12    481
54.14    454
54.16    488
54.18    530
54.2     555
54.22    664
54.24    683
54.26    705
54.28    667
54.3     653
54.32    659
54.34    697
54.36    706
54.38    705
54.4     672
54.42    668
54.44    570
54.46    480
54.48    345
54.5     270
54.52    287
54.54    278
54.56    321
54.58    432
54.6     553
54.62    668
54.64    761
54.66    825
54.68    786
54.7     785
54.72    698
54.74    580
54.76    524
54.78    502
54.8     400
54.82    341
54.84    340
54.86    318
54.88    339
54.9     386
54.92    391
54.94    477
54.96    558
54.98    656
55.0     663
55.02    647
55.04    597
55.06    537
55.08    510
55.1     456
55.12    381
55.14    308
55.16    304
55.18    386
55.2     505
55.22    526
55.24    570
55.26    605
55.28    659
55.3     636
55.32    565
55.34    480
55.36    405
55.38    474
55.4     547
55.42    563
55.44    562
55.46    545
55.48    566
55.5     557
55.52    574
55.54    495
55.56    431
55.58    501
55.6     492
55.62    522
55.64    525
55.66    486
55.68    484
55.7     530
55.72    551
55.74    512
55.76    516
55.78    531
55.8     504
55.82    567
55.84    536
55.86    481
55.88    478
55.9     454
55.92    428
55.94    414
55.96    362
55.98    420
56.0     431
56.02    444
56.04    472
56.06    527
56.08    570
56.1     579
56.12    568
56.14    549
56.16    528
56.18    602
56.2     604
56.22    595
56.24    629
56.26    626
56.28    637
56.3     627
56.32    567
56.34    518
56.36    465
56.38    505
56.4     526
56.42    559
56.44    576
56.46    582
56.48    635
56.5     691
56.52    704
56.54    703
56.56    668
56.58    648
56.6     591
56.62    602
56.64    538
56.66    451
56.68    460
56.7     516
56.72    491
56.74    472
56.76    426
56.78    392
56.8     414
56.82    498
56.84    505
56.86    546
56.88    634
56.9     740
56.92    761
56.94    775
56.96    770
56.98    692
57.0     630
57.02    563
57.04    473
57.06    386
57.08    289
57.1     272
57.12    307
57.14    428
57.16    539
57.18    627
57.2     670
57.22    693
57.24    747
57.26    669
57.28    598
57.3     573
57.32    531
57.34    552
57.36    487
57.38    525
57.4     473
57.42    517
57.44    594
57.46    558
57.48    592
57.5     663
57.52    766
57.54    805
57.56    839
57.58    901
57.6     928
57.62    974
57.64    936
57.66    860
57.68    821
57.7     823
57.72    884
57.74    868
57.76    922
57.78    930
57.8     1003
57.82    1033
57.84    1117
57.86    1241
57.88    1299
57.9     1364
57.92    1474
57.94    1568
57.96    1637
57.98    1865
58.0     2047
58.02    2213
58.04    2493
58.06    2820
58.08    3160
58.1     3638
58.12    4288
58.14    4999
58.16    6012
58.18    7325
58.2     8719
58.22    10250
58.24    11825
58.26    13225
58.28    14198
58.3     14724
58.32    14598
58.34    13791
58.36    12582
58.38    11041
58.4     9429
58.42    7906
58.44    6583
58.46    5497
58.48    4624
58.5     4092
58.52    3582
58.54    3124
58.56    2670
58.58    2359
58.6     2070
58.62    1868
58.64    1662
58.66    1476
58.68    1341
58.7     1331
58.72    1268
58.74    1129
58.76    1016
58.78    979
58.8     959
58.82    1028
58.84    1022
58.86    981
58.88    920
58.9     902
58.92    862
58.94    785
58.96    763
58.98    712
59.0     668
59.02    686
59.04    701
59.06    695
59.08    696
59.1     646
59.12    628
59.14    657
59.16    707
59.18    718
59.2     659
59.22    658
59.24    627
59.26    611
59.28    545
59.3     434
59.32    437
59.34    484
59.36    504
59.38    545
59.4     543
59.42    534
59.44    572
59.46    579
59.48    533
59.5     490
59.52    543
59.54    572
59.56    529
59.58    579
59.6     543
59.62    512
59.64    513
59.66    480
59.68    507
59.7     491
59.72    489
59.74    497
59.76    495
59.78    574
59.8     592
59.82    614
59.84    606
59.86    615
59.88    639
59.9     620
59.92    571
59.94    516
59.96    490
59.98    519
60.0     548
60.02    545
60.04    566
60.06    535
60.08    489
60.1     514
60.12    524
60.14    498
60.16    529
60.18    556
60.2     596
60.22    607
60.24    649
60.26    678
60.28    677
60.3     711
60.32    693
60.34    648
60.36    589
60.38    562
60.4     512
60.42    454
60.44    395
60.46    438
60.48    504
60.5     546
60.52    615
60.54    655
60.56    621
60.58    594
60.6     617
60.62    544
60.64    431
60.66    421
60.68    387
60.7     336
60.72    398
60.74    442
60.76    449
60.78    480
60.8     631
60.82    631
60.84    663
60.86    687
60.88    655
60.9     614
60.92    582
60.94    548
60.96    518
60.98    403
61.0     396
61.02    370
61.04    370
61.06    414
61.08    468
61.1     534
61.12    542
61.14    549
61.16    548
61.18    535
61.2     564
61.22    579
61.24    515
61.26    547
61.28    575
61.3     585
61.32    591
61.34    532
61.36    576
61.38    664
61.4     679
61.42    725
61.44    685
61.46    742
61.48    768
61.5     765
61.52    718
61.54    627
61.56    632
61.58    620
61.6     595
61.62    669
61.64    744
61.66    827
61.68    952
61.7     1084
61.72    1169
61.74    1229
61.76    1277
61.78    1321
61.8     1400
61.82    1500
61.84    1668
61.86    1814
61.88    2067
61.9     2453
61.92    2923
61.94    3473
61.96    4200
61.98    5128
62.0     6342
62.02    7952
62.04    9933
62.06    12092
62.08    14204
62.1     16024
62.12    17123
62.14    17292
62.16    16583
62.18    15075
62.2     13103
62.22    10961
62.24    8888
62.26    7147
62.28    5733
62.3     4701
62.32    3861
62.34    3155
62.36    2670
62.38    2283
62.4     1994
62.42    1706
62.44    1504
62.46    1338
62.48    1183
62.5     1121
62.52    984
62.54    871
62.56    785
62.58    763
62.6     767
62.62    762
62.64    809
62.66    821
62.68    802
62.7     770
62.72    772
62.74    738
62.76    739
62.78    792
62.8     852
62.82    870
62.84    847
62.86    832
62.88    732
62.9     649
62.92    649
62.94    530
62.96    550
62.98    556
63.0     585
63.02    574
63.04    542
63.06    591
63.08    580
63.1     620
63.12    588
63.14    548
63.16    563
63.18    560
63.2     543
63.22    492
63.24    470
63.26    466
63.28    448
63.3     490
63.32    451
63.34    439
63.36    450
63.38    433
63.4     439
63.42    435
63.44    475
63.46    523
63.48    543
63.5     599
63.52    626
63.54    661
63.56    664
63.58    642
63.6     648
63.62    604
63.64    664
63.66    672
63.68    614
63.7     596
63.72    509
63.74    500
63.76    394
63.78    404
63.8     402
63.82    368
63.84    475
63.86    546
63.88    560
63.9     573
63.92    524
63.94    622
63.96    564
63.98    546
64.0     576
64.02    494
64.04    443
64.06    471
64.08    399
64.1     370
64.12    367
64.14    441
64.16    482
64.18    488
64.2     609
64.22    631
64.24    617
64.26    739
64.28    721
64.3     721
64.32    659
64.34    624
64.36    626
64.38    609
64.4     598
64.42    649
64.44    659
64.46    728
64.48    773
64.5     889
64.52    942
64.54    1029
64.56    1088
64.58    1232
64.6     1272
64.62    1430
64.64    1633
64.66    1847
64.68    2143
64.7     2566
64.72    2995
64.74    3456
64.76    3813
64.78    4167
64.8     4294
64.82    4272
64.84    4155
64.86    3867
64.88    3461
64.9     3053
64.92    2584
64.94    2201
64.96    1826
64.98    1601
65.0     1377
65.02    1155
65.04    1044
65.06    997
65.08    892
65.1     827
65.12    754
65.14    747
65.16    681
65.18    665
65.2     602
65.22    550
65.24    526
65.26    557
65.28    577
65.3     613
65.32    611
65.34    646
65.36    622
65.38    638
65.4     635
65.42    592
65.44    498
65.46    463
65.48    441
65.5     436
65.52    396
65.54    432
65.56    438
65.58    484
65.6     481
65.62    495
65.64    511
65.66    510
65.68    514
65.7     546
65.72    487
65.74    532
65.76    491
65.78    489
65.8     484
65.82    505
65.84    544
65.86    510
65.88    442
65.9     389
65.92    310
65.94    321
65.96    313
65.98    400
66.0     444
66.02    478
66.04    483
66.06    507
66.08    481
66.1     458
66.12    474
66.14    435
66.16    466
66.18    550
66.2     574
66.22    625
66.24    619
66.26    584
66.28    597
66.3     550
66.32    569
66.34    472
66.36    428
66.38    393
66.4     377
66.42    340
66.44    329
66.46    251
66.48    294
66.5     261
66.52    293
66.54    335
66.56    349
66.58    352
66.6     440
66.62    463
66.64    526
66.66    572
66.68    566
66.7     520
66.72    465
66.74    448
66.76    408
66.78    404
66.8     434
66.82    469
66.84    493
66.86    492
66.88    486
66.9     530
66.92    518
66.94    544
66.96    527
66.98    530
67.0     435
67.02    420
67.04    425
67.06    417
67.08    417
67.1     434
67.12    429
67.14    451
67.16    423
67.18    450
67.2     402
67.22    384
67.24    428
67.26    392
67.28    325
67.3     312
67.32    345
67.34    394
67.36    427
67.38    498
67.4     536
67.42    506
67.44    525
67.46    497
67.48    518
67.5     543
67.52    545
67.54    540
67.56    540
67.58    563
67.6     560
67.62    490
67.64    449
67.66    386
67.68    372
67.7     324
67.72    332
67.74    329
67.76    364
67.78    423
67.8     468
67.82    498
67.84    510
67.86    509
67.88    578
67.9     593
67.92    598
67.94    539
67.96    549
67.98    568
68.0     564
68.02    580
68.04    508
68.06    475
68.08    477
68.1     469
68.12    380
68.14    435
68.16    527
68.18    530
68.2     539
68.22    581
68.24    592
68.26    607
68.28    568
68.3     538
68.32    443
68.34    489
68.36    443
68.38    445
68.4     458
68.42    498
68.44    573
68.46    662
68.48    685
68.5     718
68.52    723
68.54    732
68.56    715
68.58    750
68.6     692
68.62    658
68.64    637
68.66    647
68.68    623
68.7     714
68.72    741
68.74    867
68.76    934
68.78    1041
68.8     1183
68.82    1360
68.84    1554
68.86    1800
68.88    2108
68.9     2436
68.92    2802
68.94    3194
68.96    3514
68.98    3785
69.0     3922
69.02    3947
69.04    3824
69.06    3614
69.08    3242
69.1     2799
69.12    2455
69.14    2081
69.16    1854
69.18    1599
69.2     1499
69.22    1427
69.24    1338
69.26    1247
69.28    1145
69.3     1134
69.32    1048
69.34    910
69.36    815
69.38    737
69.4     694
69.42    620
69.44    570
69.46    532
69.48    557
69.5     563
69.52    527
69.54    529
69.56    546
69.58    638
69.6     648
69.62    687
69.64    681
69.66    632
69.68    598
69.7     608
69.72    608
69.74    587
69.76    560
69.78    567
69.8     596
69.82    586
69.84    537
69.86    518
69.88    561
69.9     597
69.92    606
69.94    592
69.96    557
69.98    559
70.0     557
70.02    504
70.04    503
70.06    491
70.08    500
70.1     486
70.12    507
70.14    472
70.16    491
70.18    471
70.2     474
70.22    460
70.24    503
70.26    517
70.28    588
70.3     634
70.32    710
70.34    752
70.36    791
70.38    799
70.4     809
70.42    801
70.44    864
70.46    950
70.48    1029
70.5     1137
70.52    1295
70.54    1442
70.56    1564
70.58    1687
70.6     1815
70.62    1954
70.64    2065
70.66    2086
70.68    1976
70.7     1840
70.72    1738
70.74    1594
70.76    1421
70.78    1258
70.8     1132
70.82    992
70.84    934
70.86    860
70.88    798
70.9     760
70.92    686
70.94    620
70.96    619
70.98    598
71.0     504
71.02    535
71.04    567
71.06    566
71.08    538
71.1     537
71.12    507
71.14    512
71.16    507
71.18    470
71.2     401
71.22    384
71.24    327
71.26    287
71.28    270
71.3     287
71.32    303
71.34    331
71.36    389
71.38    460
71.4     513
71.42    574
71.44    607
71.46    630
71.48    583
71.5     538
71.52    488
71.54    486
71.56    554
71.58    542
71.6     535
71.62    496
71.64    457
71.66    453
71.68    453
71.7     491
71.72    481
71.74    496
71.76    534
71.78    502
71.8     479
71.82    512
71.84    534
71.86    580
71.88    636
71.9     636
71.92    602
71.94    612
71.96    567
71.98    585
72.0     611
72.02    605
72.04    596
72.06    640
72.08    679
72.1     687
72.12    690
72.14    728
72.16    732
72.18    845
72.2     882
72.22    876
72.24    1016
72.26    1138
72.28    1246
72.3     1394
72.32    1473
72.34    1670
72.36    1886
72.38    2163
72.4     2491
72.42    2937
72.44    3452
72.46    3926
72.48    4329
72.5     4629
72.52    4803
72.54    4863
72.56    4715
72.58    4415
72.6     4090
72.62    3720
72.64    3326
72.66    2860
72.68    2448
72.7     2097
72.72    1838
72.74    1626
72.76    1505
72.78    1365
72.8     1325
72.82    1238
72.84    1116
72.86    973
72.88    849
72.9     772
72.92    742
72.94    745
72.96    720
72.98    693
73.0     735
73.02    678
73.04    612
73.06    588
73.08    618
73.1     683
73.12    704
73.14    682
73.16    673
73.18    756
73.2     762
73.22    721
73.24    703
73.26    722
73.28    815
73.3     815
73.32    816
73.34    890
73.36    973
73.38    1085
73.4     1105
73.42    1157
73.44    1193
73.46    1196
73.48    1182
73.5     1100
73.52    1055
73.54    978
73.56    875
73.58    812
73.6     770
73.62    747
73.64    725
73.66    698
73.68    662
73.7     632
73.72    594
73.74    566
73.76    540
73.78    499
73.8     484
73.82    420
73.84    392
73.86    429
73.88    466
73.9     543
73.92    584
73.94    637
73.96    681
73.98    708
74.0     717
74.02    706
74.04    771
74.06    828
74.08    963
74.1     1071
74.12    1200
74.14    1335
74.16    1536
74.18    1742
74.2     1947
74.22    2171
74.24    2343
74.26    2386
74.28    2407
74.3     2288
74.32    2158
74.34    1936
74.36    1772
74.38    1631
74.4     1490
74.42    1376
74.44    1229
74.46    1113
74.48    1041
74.5     989
74.52    942
74.54    912
74.56    929
74.58    912
74.6     880
74.62    882
74.64    841
74.66    933
74.68    1031
74.7     1097
74.72    1199
74.74    1282
74.76    1372
74.78    1511
74.8     1685
74.82    1802
74.84    1854
74.86    1959
74.88    1996
74.9     2004
74.92    1989
74.94    1907
74.96    1848
74.98    1783
75.0     1676
75.02    1488
75.04    1349
75.06    1253
75.08    1207
75.1     1138
75.12    1069
75.14    1004
75.16    929
75.18    884
75.2     801
75.22    720
75.24    747
75.26    755
75.28    736
75.3     690
75.32    636
75.34    533
75.36    470
75.38    446
75.4     337
75.42    325
75.44    365
75.46    334
75.48    331
75.5     390
75.52    441
75.54    461
75.56    509
75.58    514
75.6     570
75.62    585
75.64    581
75.66    535
75.68    614
75.7     622
75.72    629
75.74    563
75.76    533
75.78    476
75.8     435
75.82    308
75.84    286
75.86    210
75.88    281
75.9     212
75.92    232
75.94    245
75.96    346
75.98    351
76.0     298
76.02    328
76.04    436
76.06    475
76.08    575
76.1     586
76.12    675
76.14    683
76.16    727
76.18    630
76.2     527
76.22    517
76.24    498
76.26    365
76.28    311
76.3     251
76.32    297
76.34    293
76.36    322
76.38    355
76.4     390
76.42    402
76.44    426
76.46    371
76.48    439
76.5     488
76.52    599
76.54    587
76.56    567
76.58    540
76.6     468
76.62    446
76.64    468
76.66    402
76.68    441
76.7     436
76.72    437
76.74    428
76.76    448
76.78    440
76.8     464
76.82    507
76.84    495
76.86    479
76.88    499
76.9     487
76.92    496
76.94    543
76.96    576
76.98    594
77.0     583
77.02    628
77.04    608
77.06    644
77.08    678
77.1     738
77.12    788
77.14    882
77.16    960
77.18    971
77.2     952
77.22    986
77.24    1030
77.26    1096
77.28    1205
77.3     1323
77.32    1486
77.34    1732
77.36    1983
77.38    2200
77.4     2523
77.42    2953
77.44    3413
77.46    3873
77.48    4393
77.5     4874
77.52    5272
77.54    5595
77.56    5675
77.58    5575
77.6     5325
77.62    4907
77.64    4378
77.66    3839
77.68    3353
77.7     2918
77.72    2516
77.74    2225
77.76    1886
77.78    1615
77.8     1380
77.82    1169
77.84    1004
77.86    866
77.88    821
77.9     781
77.92    774
77.94    781
77.96    726
77.98    707
78.0     733
78.02    728
78.04    664
78.06    664
78.08    714
78.1     682
78.12    639
78.14    545
78.16    486
78.18    541
78.2     560
78.22    596
78.24    566
78.26    603
78.28    603
78.3     501
78.32    431
78.34    352
78.36    369
78.38    471
78.4     478
78.42    491
78.44    484
78.46    474
78.48    472
78.5     396
78.52    345
78.54    363
78.56    377
78.58    418
78.6     422
78.62    391
78.64    439
78.66    499
78.68    540
78.7     522
78.72    534
78.74    577
78.76    568
78.78    555
78.8     485
78.82    415
78.84    386
78.86    406
78.88    401
78.9     434
78.92    461
78.94    519
78.96    523
78.98    459
79.0     348
79.02    323
79.04    346
79.06    402
79.08    465
79.1     505
79.12    554
79.14    566
79.16    481
79.18    354
79.2     324
79.22    356
79.24    330
79.26    346
79.28    367
79.3     412
79.32    427
79.34    430
79.36    400
79.38    403
79.4     450
79.42    445
79.44    342
79.46    356
79.48    342
79.5     376
79.52    403
79.54    390
79.56    369
79.58    384
79.6     368
79.62    377
79.64    371
79.66    340
79.68    358
79.7     286
79.72    287
79.74    199
79.76    220
79.78    291
79.8     433
79.82    552
79.84    607
79.86    567
79.88    559
79.9     531
79.92    479
79.94    464
79.96    487
79.98    589
80.0     690
80.02    694
80.04    598
80.06    519
80.08    478
80.1     522
80.12    469
80.14    471
80.16    487
80.18    538
80.2     542
80.22    540
80.24    454
80.26    507
80.28    558
80.3     592
80.32    551
80.34    461
80.36    424
80.38    407
80.4     353
80.42    355
80.44    342
80.46    418
80.48    451
80.5     443
80.52    356
80.54    257
80.56    247
80.58    296
80.6     291
80.62    351
80.64    401
80.66    456
80.68    518
80.7     544
80.72    545
80.74    512
80.76    491
80.78    499
80.8     440
80.82    437
80.84    421
80.86    423
80.88    431
80.9     429
80.92    411
80.94    356
80.96    291
80.98    311
81.0     251
81.02    232
81.04    186
81.06    151
81.08    111
81.1     89
81.12    129
81.14    209
81.16    304
81.18    422
81.2     461
81.22    447
81.24    442
81.26    400
81.28    399
81.3     407
81.32    462
81.34    560
81.36    575
81.38    548
81.4     525
81.42    476
81.44    444
81.46    384
81.48    386
81.5     347
81.52    336
81.54    366
81.56    299
81.58    236
81.6     231
81.62    278
81.64    268
81.66    321
81.68    381
81.7     434
81.72    467
81.74    501
81.76    480
81.78    472
81.8     445
81.82    460
81.84    517
81.86    489
81.88    490
81.9     446
81.92    413
81.94    391
81.96    368
81.98    338
82.0     298
82.02    278
82.04    324
82.06    214
82.08    217
82.1     193
82.12    229
82.14    251
82.16    332
82.18    307
82.2     320
82.22    332
82.24    377
82.26    393
82.28    438
82.3     426
82.32    483
82.34    483
82.36    491
82.38    469
82.4     472
82.42    522
82.44    552
82.46    543
82.48    473
82.5     431
82.52    450
82.54    405
82.56    411
82.58    407
82.6     391
82.62    404
82.64    389
82.66    345
82.68    266
82.7     252
82.72    236
82.74    264
82.76    295
82.78    307
82.8     332
82.82    362
82.84    379
82.86    389
82.88    355
82.9     347
82.92    336
82.94    420
82.96    425
82.98    443
83.0     453
83.02    423
83.04    378
83.06    316
83.08    285
83.1     316
83.12    327
83.14    391
83.16    395
83.18    394
83.2     404
83.22    358
83.24    271
83.26    236
83.28    287
83.3     391
83.32    446
83.34    474
83.36    505
83.38    518
83.4     498
83.42    441
83.44    346
83.46    367
83.48    363
83.5     390
83.52    347
83.54    328
83.56    344
83.58    370
83.6     364
83.62    338
83.64    331
83.66    355
83.68    377
83.7     436
83.72    463
83.74    517
83.76    568
83.78    586
83.8     527
83.82    497
83.84    403
83.86    367
83.88    430
83.9     423
83.92    416
83.94    392
83.96    374
83.98    355
84.0     306
84.02    320
84.04    288
84.06    365
84.08    359
84.1     329
84.12    329
84.14    301
84.16    268
84.18    270
84.2     284
84.22    346
84.24    361
84.26    432
84.28    392
84.3     405
84.32    360
84.34    362
84.36    342
84.38    390
84.4     413
84.42    440
84.44    392
84.46    395
84.48    330
84.5     324
84.52    230
84.54    259
84.56    300
84.58    385
84.6     428
84.62    490
84.64    479
84.66    510
84.68    497
84.7     536
84.72    452
84.74    509
84.76    487
84.78    540
84.8     587
84.82    547
84.84    467
84.86    438
84.88    440
84.9     470
84.92    422
84.94    443
84.96    427
84.98    517
85.0     446
85.02    407
85.04    341
85.06    288
85.08    322
85.1     348
85.12    333
85.14    328
85.16    299
85.18    295
85.2     271
85.22    312
85.24    241
85.26    257
85.28    327
85.3     404
85.32    443
85.34    465
85.36    443
85.38    504
85.4     550
85.42    523
85.44    466
85.46    462
85.48    415
85.5     379
85.52    333
85.54    287
85.56    254
85.58    212
85.6     181
85.62    165
85.64    183
85.66    178
85.68    203
85.7     282
85.72    357
85.74    391
85.76    427
85.78    408
85.8     477
85.82    492
85.84    557
85.86    573
85.88    585
85.9     542
85.92    497
85.94    434
85.96    353
85.98    299
86.0     345
86.02    314
86.04    371
86.06    392
86.08    420
86.1     409
86.12    454
86.14    446
86.16    451
86.18    506
86.2     579
86.22    626
86.24    746
86.26    769
86.28    834
86.3     886
86.32    977
86.34    975
86.36    1064
86.38    1090
86.4     1125
86.42    1111
86.44    1119
86.46    1053
86.48    1024
86.5     949
86.52    894
86.54    830
86.56    827
86.58    693
86.6     658
86.62    507
86.64    501
86.66    562
86.68    567
86.7     575
86.72    587
86.74    626
86.76    674
86.78    637
86.8     620
86.82    541
86.84    549
86.86    568
86.88    544
86.9     536
86.92    485
86.94    421
86.96    326
86.98    235
87.0     229
87.02    198
87.04    234
87.06    297
87.08    368
87.1     405
87.12    442
87.14    337
87.16    249
87.18    222
87.2     297
87.22    293
87.24    398
87.26    476
87.28    516
87.3     555
87.32    550
87.34    412
87.36    295
87.38    248
87.4     224
87.42    249
87.44    344
87.46    403
87.48    460
87.5     495
87.52    491
87.54    426
87.56    312
87.58    304
87.6     290
87.62    387
87.64    476
87.66    517
87.68    590
87.7     590
87.72    588
87.74    549
87.76    439
87.78    402
87.8     371
87.82    426
87.84    469
87.86    466
87.88    410
87.9     384
87.92    338
87.94    277
87.96    224
87.98    249
88.0     266
88.02    325
88.04    354
88.06    363
88.08    331
88.1     336
88.12    271
88.14    255
88.16    312
88.18    354
88.2     398
88.22    456
88.24    520
88.26    524
88.28    561
88.3     528
88.32    480
88.34    426
88.36    417
88.38    373
88.4     346
88.42    351
88.44    318
88.46    299
88.48    327
88.5     239
88.52    195
88.54    148
88.56    133
88.58    122
88.6     144
88.62    177
88.64    195
88.66    261
88.68    288
88.7     225
88.72    224
88.74    202
88.76    185
88.78    293
88.8     429
88.82    525
88.84    638
88.86    692
88.88    723
88.9     649
88.92    608
88.94    523
88.96    490
88.98    505
89.0     547
89.02    571
89.04    606
89.06    544
89.08    493
89.1     439
89.12    394
89.14    329
89.16    321
89.18    318
89.2     297
89.22    305
89.24    298
89.26    274
89.28    266
89.3     308
89.32    282
89.34    336
89.36    398
89.38    434
89.4     465
89.42    534
89.44    510
89.46    498
89.48    499
89.5     483
89.52    424
89.54    470
89.56    458
89.58    402
89.6     469
89.62    473
89.64    447
89.66    409
89.68    398
89.7     379
89.72    395
89.74    436
89.76    393
89.78    349
89.8     424
89.82    445
89.84    450
89.86    465
89.88    438
89.9     479
89.92    476
89.94    517
89.96    523
89.98    532
90.0     528
