?
5.0      841
5.02     841
5.04     1091
5.06     975
5.08     992
5.1      956
5.12     946
5.14     923
5.16     957
5.18     965
5.2      988
5.22     1005
5.24     1036
5.26     1011
5.28     1041
5.3      1024
5.32     1005
5.34     985
5.36     1016
5.38     1013
5.4      1004
5.42     999
5.44     1015
5.46     995
5.48     1033
5.5      1002
5.52     1007
5.54     1004
5.56     1050
5.58     1068
5.6      1046
5.62     1078
5.64     1095
5.66     1081
5.68     1065
5.7      988
5.72     955
5.74     921
5.76     956
5.78     969
5.8      951
5.82     1003
5.84     1019
5.86     1035
5.88     1057
5.9      1020
5.92     1028
5.94     1033
5.96     1031
5.98     1004
6.0      977
6.02     976
6.04     980
6.06     967
6.08     1003
6.1      986
6.12     1012
6.14     1068
6.16     1029
6.18     1045
6.2      1053
6.22     1033
6.24     1080
6.26     1067
6.28     1092
6.3      1090
6.32     1085
6.34     1094
6.36     1009
6.38     1022
6.4      1011
6.42     988
6.44     1031
6.46     1007
6.48     1042
6.5      1098
6.52     1086
6.54     1081
6.56     1066
6.58     1093
6.6      1056
6.62     1029
6.64     1005
6.66     968
6.68     955
6.7      1000
6.72     964
6.74     958
6.76     987
6.78     968
6.8      1012
6.82     1020
6.84     1044
6.86     1038
6.88     1040
6.9      1049
6.92     1015
6.94     1002
6.96     998
6.98     969
7.0      1016
7.02     1012
7.04     1009
7.06     975
7.08     995
7.1      982
7.12     972
7.14     930
7.16     895
7.18     897
7.2      916
7.22     941
7.24     880
7.26     908
7.28     976
7.3      1000
7.32     1001
7.34     964
7.36     982
7.38     1048
7.4      1059
7.42     1033
7.44     1034
7.46     1057
7.48     1086
7.5      1098
7.52     1121
7.54     1113
7.56     1165
7.58     1143
7.6      1107
7.62     1051
7.64     1013
7.66     971
7.68     984
7.7      1027
7.72     1023
7.74     1026
7.76     1057
7.78     1027
7.8      1050
7.82     1024
7.84     1024
7.86     1016
7.88     1037
7.9      1035
7.92     1005
7.94     1020
7.96     1046
7.98     1042
8.0      1035
8.02     1051
8.04     1061
8.06     1042
8.08     1032
8.1      1033
8.12     1075
8.14     1057
8.16     1117
8.18     1078
8.2      1083
8.22     1108
8.24     1078
8.26     1066
8.28     1074
8.3      1058
8.32     1035
8.34     1025
8.36     1090
8.38     1039
8.4      1075
8.42     1061
8.44     1025
8.46     1048
8.48     1081
8.5      1061
8.52     1069
8.54     1074
8.56     1036
8.58     1005
8.6      1031
8.62     1029
8.64     1044
8.66     1100
8.68     1081
8.7      1083
8.72     1093
8.74     1016
8.76     977
8.78     983
8.8      971
8.82     980
8.84     974
8.86     988
8.88     941
8.9      958
8.92     954
8.94     929
8.96     966
8.98     1000
9.0      1017
9.02     1037
9.04     1085
9.06     1070
9.08     1100
9.1      1060
9.12     1000
9.14     966
9.16     915
9.18     916
9.2      925
9.22     953
9.24     1002
9.26     996
9.28     1071
9.3      1030
9.32     1000
9.34     970
9.36     931
9.38     928
9.4      876
9.42     865
9.44     866
9.46     864
9.48     897
9.5      847
9.52     825
9.54     795
9.56     799
9.58     800
9.6      754
9.62     755
9.64     817
9.66     869
9.68     931
9.7      915
9.72     943
9.74     928
9.76     957
9.78     930
9.8      872
9.82     873
9.84     891
9.86     888
9.88     892
9.9      870
9.92     840
9.94     852
9.96     894
9.98     864
10.0     844
10.02    844
10.04    818
10.06    826
10.08    827
10.1     796
10.12    777
10.14    866
10.16    850
10.18    872
10.2     896
10.22    877
10.24    868
10.26    872
10.28    858
10.3     843
10.32    839
10.34    798
10.36    720
10.38    750
10.4     761
10.42    716
10.44    728
10.46    759
10.48    800
10.5     775
10.52    782
10.54    752
10.56    793
10.58    797
10.6     790
10.62    797
10.64    814
10.66    819
10.68    770
10.7     726
10.72    738
10.74    732
10.76    791
10.78    829
10.8     805
10.82    776
10.84    760
10.86    753
10.88    685
10.9     676
10.92    671
10.94    703
10.96    776
10.98    838
11.0     786
11.02    741
11.04    767
11.06    733
11.08    689
11.1     684
11.12    758
11.14    768
11.16    830
11.18    847
11.2     804
11.22    796
11.24    767
11.26    739
11.28    730
11.3     761
11.32    789
11.34    747
11.36    846
11.38    847
11.4     811
11.42    852
11.44    856
11.46    899
11.48    923
11.5     921
11.52    868
11.54    861
11.56    899
11.58    855
11.6     831
11.62    874
11.64    923
11.66    931
11.68    939
11.7     911
11.72    875
11.74    824
11.76    709
11.78    680
11.8     760
11.82    785
11.84    829
11.86    843
11.88    860
11.9     897
11.92    947
11.94    899
11.96    823
11.98    855
12.0     920
12.02    880
12.04    844
12.06    853
12.08    843
12.1     884
12.12    897
12.14    871
12.16    794
12.18    769
12.2     818
12.22    778
12.24    757
12.26    757
12.28    787
12.3     873
12.32    863
12.34    896
12.36    877
12.38    899
12.4     900
12.42    845
12.44    833
12.46    794
12.48    844
12.5     850
12.52    807
12.54    840
12.56    855
12.58    858
12.6     823
12.62    851
12.64    859
12.66    943
12.68    983
12.7     944
12.72    957
12.74    969
12.76    949
12.78    973
12.8     955
12.82    938
12.84    891
12.86    963
12.88    964
12.9     895
12.92    854
12.94    878
12.96    864
12.98    905
13.0     950
13.02    966
13.04    946
13.06    1033
13.08    1046
13.1     957
13.12    937
13.14    956
13.16    966
13.18    973
13.2     960
13.22    940
13.24    953
13.26    993
13.28    970
13.3     983
13.32    1023
13.34    999
13.36    1062
13.38    1062
13.4     994
13.42    996
13.44    1025
13.46    989
13.48    967
13.5     924
13.52    946
13.54    922
13.56    937
13.58    1007
13.6     1015
13.62    1049
13.64    1062
13.66    1108
13.68    1111
13.7     1024
13.72    1049
13.74    1043
13.76    1024
13.78    1129
13.8     1140
13.82    1123
13.84    1136
13.86    1178
13.88    1137
13.9     1054
13.92    1026
13.94    1006
13.96    995
13.98    1035
14.0     1042
14.02    1032
14.04    1056
14.06    1043
14.08    1057
14.1     1067
14.12    1107
14.14    1047
14.16    1034
14.18    1027
14.2     1094
14.22    1117
14.24    1105
14.26    1060
14.28    1104
14.3     1102
14.32    1101
14.34    1037
14.36    1076
14.38    1071
14.4     1065
14.42    1074
14.44    1057
14.46    1069
14.48    1078
14.5     1100
14.52    1144
14.54    1182
14.56    1194
14.58    1143
14.6     1091
14.62    1070
14.64    1103
14.66    1111
14.68    1042
14.7     1076
14.72    1114
14.74    1179
14.76    1193
14.78    1193
14.8     1163
14.82    1154
14.84    1227
14.86    1236
14.88    1183
14.9     1262
14.92    1345
14.94    1407
14.96    1414
14.98    1402
15.0     1383
15.02    1361
15.04    1357
15.06    1293
15.08    1223
15.1     1286
15.12    1265
15.14    1180
15.16    1131
15.18    1157
15.2     1245
15.22    1269
15.24    1270
15.26    1239
15.28    1250
15.3     1303
15.32    1265
15.34    1212
15.36    1172
15.38    1210
15.4     1314
15.42    1380
15.44    1392
15.46    1326
15.48    1332
15.5     1366
15.52    1347
15.54    1355
15.56    1334
15.58    1336
15.6     1381
15.62    1413
15.64    1397
15.66    1341
15.68    1381
15.7     1418
15.72    1404
15.74    1452
15.76    1507
15.78    1549
15.8     1579
15.82    1636
15.84    1673
15.86    1650
15.88    1729
15.9     1769
15.92    1846
15.94    1942
15.96    2012
15.98    2054
16.0     2141
16.02    2227
16.04    2228
16.06    2214
16.08    2321
16.1     2469
16.12    2697
16.14    2864
16.16    3085
16.18    3301
16.2     3660
16.22    4050
16.24    4383
16.26    4806
16.28    5407
16.3     6142
16.32    6982
16.34    7962
16.36    9103
16.38    10521
16.4     12407
16.42    14656
16.44    17444
16.46    21084
16.48    25831
16.5     31629
16.52    37859
16.54    43488
16.56    47034
16.58    47440
16.6     44569
16.62    38841
16.64    31334
16.66    23268
16.68    16152
16.7     10887
16.72    7640
16.74    6032
16.76    5174
16.78    4385
16.8     3837
16.82    3451
16.84    3195
16.86    2961
16.88    2754
16.9     2617
16.92    2576
16.94    2509
16.96    2391
16.98    2151
17.0     2026
17.02    2013
17.04    1975
17.06    1864
17.08    1818
17.1     1841
17.12    1729
17.14    1641
17.16    1626
17.18    1597
17.2     1547
17.22    1528
17.24    1506
17.26    1484
17.28    1541
17.3     1601
17.32    1525
17.34    1521
17.36    1545
17.38    1514
17.4     1393
17.42    1279
17.44    1260
17.46    1247
17.48    1243
17.5     1256
17.52    1239
17.54    1280
17.56    1309
17.58    1281
17.6     1226
17.62    1169
17.64    1211
17.66    1229
17.68    1161
17.7     1065
17.72    1079
17.74    1171
17.76    1143
17.78    1095
17.8     1094
17.82    1131
17.84    1241
17.86    1242
17.88    1197
17.9     1176
17.92    1149
17.94    1127
17.96    1005
17.98    974
18.0     981
18.02    1001
18.04    1080
18.06    1070
18.08    1068
18.1     1109
18.12    1047
18.14    1007
18.16    960
18.18    989
18.2     984
18.22    986
18.24    1045
18.26    1000
18.28    946
18.3     964
18.32    933
18.34    949
18.36    957
18.38    964
18.4     969
18.42    1007
18.44    1027
18.46    1012
18.48    977
18.5     928
18.52    931
18.54    958
18.56    931
18.58    895
18.6     873
18.62    881
18.64    916
18.66    924
18.68    911
18.7     891
18.72    948
18.74    971
18.76    935
18.78    878
18.8     835
18.82    868
18.84    905
18.86    890
18.88    890
18.9     950
18.92    1048
18.94    1028
18.96    952
18.98    909
19.0     913
19.02    946
19.04    914
19.06    879
19.08    837
19.1     906
19.12    955
19.14    908
19.16    845
19.18    871
19.2     882
19.22    910
19.24    865
19.26    856
19.28    827
19.3     814
19.32    770
19.34    771
19.36    726
19.38    709
19.4     729
19.42    774
19.44    838
19.46    853
19.48    829
19.5     834
19.52    856
19.54    867
19.56    810
19.58    756
19.6     806
19.62    780
19.64    803
19.66    748
19.68    713
19.7     777
19.72    838
19.74    870
19.76    862
19.78    845
19.8     873
19.82    807
19.84    769
19.86    720
19.88    710
19.9     778
19.92    805
19.94    841
19.96    794
19.98    781
20.0     805
20.02    734
20.04    674
20.06    668
20.08    728
20.1     763
20.12    759
20.14    795
20.16    752
20.18    754
20.2     775
20.22    713
20.24    705
20.26    681
20.28    717
20.3     732
20.32    741
20.34    763
20.36    692
20.38    658
20.4     657
20.42    647
20.44    670
20.46    617
20.48    664
20.5     715
20.52    768
20.54    772
20.56    726
20.58    702
20.6     743
20.62    764
20.64    757
20.66    757
20.68    801
20.7     822
20.72    788
20.74    834
20.76    844
20.78    889
20.8     878
20.82    846
20.84    759
20.86    728
20.88    699
20.9     677
20.92    626
20.94    732
20.96    711
20.98    672
21.0     604
21.02    651
21.04    646
21.06    571
21.08    612
21.1     638
21.12    687
21.14    689
21.16    651
21.18    646
21.2     740
21.22    860
21.24    878
21.26    792
21.28    790
21.3     768
21.32    744
21.34    706
21.36    688
21.38    725
21.4     750
21.42    735
21.44    640
21.46    605
21.48    592
21.5     592
21.52    635
21.54    698
21.56    739
21.58    781
21.6     760
21.62    677
21.64    645
21.66    699
21.68    703
21.7     656
21.72    659
21.74    646
21.76    694
21.78    643
21.8     608
21.82    537
21.84    602
21.86    689
21.88    751
21.9     690
21.92    572
21.94    529
21.96    518
21.98    515
22.0     513
22.02    483
22.04    507
22.06    573
22.08    616
22.1     565
22.12    472
22.14    512
22.16    567
22.18    628
22.2     597
22.22    582
22.24    557
22.26    628
22.28    641
22.3     669
22.32    636
22.34    659
22.36    651
22.38    579
22.4     496
22.42    514
22.44    540
22.46    593
22.48    611
22.5     699
22.52    691
22.54    668
22.56    620
22.58    595
22.6     552
22.62    585
22.64    571
22.66    601
22.68    595
22.7     637
22.72    627
22.74    567
22.76    551
22.78    568
22.8     555
22.82    584
22.84    611
22.86    665
22.88    626
22.9     644
22.92    657
22.94    605
22.96    598
22.98    578
23.0     530
23.02    538
23.04    540
23.06    557
23.08    523
23.1     542
23.12    597
23.14    574
23.16    581
23.18    549
23.2     528
23.22    542
23.24    603
23.26    644
23.28    602
23.3     595
23.32    616
23.34    615
23.36    572
23.38    533
23.4     482
23.42    550
23.44    672
23.46    707
23.48    679
23.5     625
23.52    615
23.54    598
23.56    506
23.58    416
23.6     336
23.62    412
23.64    509
23.66    558
23.68    578
23.7     579
23.72    554
23.74    541
23.76    512
23.78    467
23.8     431
23.82    429
23.84    462
23.86    441
23.88    503
23.9     516
23.92    545
23.94    600
23.96    602
23.98    595
24.0     565
24.02    572
24.04    487
24.06    456
24.08    426
24.1     389
24.12    433
24.14    493
24.16    475
24.18    485
24.2     477
24.22    550
24.24    506
24.26    526
24.28    452
24.3     508
24.32    504
24.34    524
24.36    500
24.38    442
24.4     376
24.42    438
24.44    402
24.46    482
24.48    441
24.5     520
24.52    434
24.54    432
24.56    401
24.58    386
24.6     404
24.62    443
24.64    446
24.66    485
24.68    467
24.7     524
24.72    497
24.74    492
24.76    484
24.78    509
24.8     504
24.82    450
24.84    408
24.86    414
24.88    484
24.9     510
24.92    512
24.94    425
24.96    421
24.98    436
25.0     442
25.02    439
25.04    449
25.06    525
25.08    521
25.1     532
25.12    513
25.14    431
25.16    410
25.18    417
25.2     414
25.22    429
25.24    399
25.26    397
25.28    373
25.3     410
25.32    436
25.34    392
25.36    355
25.38    313
25.4     311
25.42    293
25.44    307
25.46    365
25.48    427
25.5     430
25.52    491
25.54    478
25.56    523
25.58    523
25.6     513
25.62    508
25.64    517
25.66    547
25.68    513
25.7     454
25.72    446
25.74    418
25.76    444
25.78    476
25.8     465
25.82    429
25.84    367
25.86    386
25.88    337
25.9     387
25.92    401
25.94    370
25.96    374
25.98    384
26.0     434
26.02    421
26.04    479
26.06    500
26.08    488
26.1     514
26.12    477
26.14    365
26.16    301
26.18    311
26.2     370
26.22    355
26.24    363
26.26    299
26.28    331
26.3     445
26.32    497
26.34    468
26.36    497
26.38    507
26.4     459
26.42    391
26.44    296
26.46    226
26.48    268
26.5     333
26.52    341
26.54    346
26.56    427
26.58    430
26.6     480
26.62    500
26.64    473
26.66    416
26.68    366
26.7     359
26.72    309
26.74    339
26.76    324
26.78    299
26.8     322
26.82    295
26.84    260
26.86    252
26.88    253
26.9     368
26.92    453
26.94    577
26.96    559
26.98    531
27.0     475
27.02    431
27.04    387
27.06    380
27.08    339
27.1     330
27.12    341
27.14    318
27.16    301
27.18    276
27.2     304
27.22    359
27.24    404
27.26    427
27.28    435
27.3     379
27.32    400
27.34    366
27.36    394
27.38    386
27.4     383
27.42    407
27.44    421
27.46    433
27.48    405
27.5     339
27.52    297
27.54    247
27.56    262
27.58    310
27.6     346
27.62    426
27.64    476
27.66    433
27.68    344
27.7     294
27.72    245
27.74    244
27.76    247
27.78    296
27.8     330
27.82    351
27.84    342
27.86    291
27.88    303
27.9     332
27.92    317
27.94    320
27.96    325
27.98    365
28.0     389
28.02    413
28.04    372
28.06    324
28.08    329
28.1     260
28.12    217
28.14    249
28.16    311
28.18    328
28.2     353
28.22    370
28.24    304
28.26    280
28.28    301
28.3     296
28.32    320
28.34    350
28.36    361
28.38    380
28.4     375
28.42    362
28.44    343
28.46    383
28.48    390
28.5     432
28.52    431
28.54    405
28.56    373
28.58    371
28.6     281
28.62    227
28.64    183
28.66    213
28.68    259
28.7     269
28.72    278
28.74    301
28.76    291
28.78    321
28.8     265
28.82    201
28.84    206
28.86    195
28.88    215
28.9     243
28.92    245
28.94    336
28.96    366
28.98    377
29.0     409
29.02    367
29.04    351
29.06    269
29.08    214
29.1     206
29.12    180
29.14    258
29.16    309
29.18    320
29.2     388
29.22    366
29.24    379
29.26    365
29.28    339
29.3     331
29.32    343
29.34    392
29.36    398
29.38    403
29.4     358
29.42    291
29.44    305
29.46    325
29.48    359
29.5     339
29.52    281
29.54    240
29.56    208
29.58    245
29.6     278
29.62    320
29.64    347
29.66    411
29.68    437
29.7     419
29.72    379
29.74    346
29.76    398
29.78    439
29.8     507
29.82    509
29.84    414
29.86    393
29.88    314
29.9     225
29.92    179
29.94    166
29.96    225
29.98    291
30.0     360
30.02    441
30.04    474
30.06    456
30.08    417
30.1     351
30.12    332
30.14    303
30.16    302
30.18    343
30.2     362
30.22    421
30.24    447
30.26    436
30.28    384
30.3     276
30.32    145
30.34    79
30.36    122
30.38    178
30.4     332
30.42    394
30.44    375
30.46    348
30.48    237
30.5     156
30.52    169
30.54    241
30.56    292
30.58    397
30.6     489
30.62    392
30.64    326
30.66    240
30.68    225
30.7     248
30.72    340
30.74    379
30.76    376
30.78    425
30.8     345
30.82    293
30.84    306
30.86    274
30.88    357
30.9     327
30.92    322
30.94    331
30.96    281
30.98    259
31.0     180
31.02    160
31.04    231
31.06    293
31.08    325
31.1     318
31.12    269
31.14    249
31.16    268
31.18    260
31.2     298
31.22    396
31.24    429
31.26    428
31.28    358
31.3     282
31.32    218
31.34    194
31.36    253
31.38    271
31.4     344
31.42    383
31.44    337
31.46    376
31.48    356
31.5     319
31.52    334
31.54    304
31.56    357
31.58    360
31.6     289
31.62    265
31.64    253
31.66    256
31.68    295
31.7     324
31.72    288
31.74    306
31.76    345
31.78    310
31.8     320
31.82    314
31.84    256
31.86    271
31.88    266
31.9     286
31.92    278
31.94    314
31.96    271
31.98    211
32.0     239
32.02    161
32.04    131
32.06    227
32.08    272
32.1     400
32.12    457
32.14    466
32.16    446
32.18    423
32.2     459
32.22    465
32.24    507
32.26    568
32.28    573
32.3     490
32.32    396
32.34    300
32.36    301
32.38    299
32.4     379
32.42    522
32.44    584
32.46    657
32.48    632
32.5     505
32.52    466
32.54    387
32.56    317
32.58    278
32.6     238
32.62    281
32.64    377
32.66    464
32.68    498
32.7     529
32.72    519
32.74    430
32.76    353
32.78    376
32.8     353
32.82    455
32.84    546
32.86    541
32.88    570
32.9     515
32.92    424
32.94    382
32.96    317
32.98    356
33.0     427
33.02    477
33.04    494
33.06    516
33.08    579
33.1     596
33.12    625
33.14    656
33.16    609
33.18    703
33.2     740
33.22    754
33.24    782
33.26    799
33.28    857
33.3     907
33.32    1006
33.34    1157
33.36    1348
33.38    1647
33.4     1934
33.42    2334
33.44    2810
33.46    3539
33.48    4706
33.5     6250
33.52    8078
33.54    9871
33.56    11266
33.58    11934
33.6     11798
33.62    10865
33.64    9309
33.66    7498
33.68    5751
33.7     4282
33.72    3203
33.74    2506
33.76    1982
33.78    1636
33.8     1408
33.82    1237
33.84    1084
33.86    967
33.88    848
33.9     784
33.92    742
33.94    772
33.96    803
33.98    843
34.0     741
34.02    698
34.04    557
34.06    441
34.08    413
34.1     452
34.12    526
34.14    664
34.16    793
34.18    817
34.2     716
34.22    661
34.24    506
34.26    411
34.28    400
34.3     450
34.32    444
34.34    518
34.36    573
34.38    578
34.4     532
34.42    491
34.44    426
34.46    379
34.48    326
34.5     353
34.52    316
34.54    432
34.56    541
34.58    587
34.6     634
34.62    662
34.64    644
34.66    551
34.68    449
34.7     416
34.72    358
34.74    375
34.76    391
34.78    394
34.8     497
34.82    666
34.84    805
34.86    917
34.88    1048
34.9     1208
34.92    1344
34.94    1539
34.96    1831
34.98    2451
35.0     3484
35.02    5142
35.04    7338
35.06    9709
35.08    11630
35.1     12702
35.12    12803
35.14    11815
35.16    9932
35.18    7706
35.2     5438
35.22    3647
35.24    2471
35.26    1722
35.28    1261
35.3     955
35.32    815
35.34    752
35.36    779
35.38    867
35.4     945
35.42    988
35.44    940
35.46    864
35.48    786
35.5     635
35.52    520
35.54    490
35.56    513
35.58    564
35.6     704
35.62    770
35.64    828
35.66    862
35.68    816
35.7     735
35.72    688
35.74    618
35.76    617
35.78    614
35.8     602
35.82    589
35.84    614
35.86    590
35.88    554
35.9     556
35.92    557
35.94    597
35.96    638
35.98    645
36.0     686
36.02    753
36.04    775
36.06    780
36.08    798
36.1     909
36.12    957
36.14    1021
36.16    1088
36.18    1199
36.2     1364
36.22    1543
36.24    1793
36.26    2135
36.28    2629
36.3     3420
36.32    4382
36.34    5753
36.36    7927
36.38    11040
36.4     15102
36.42    19433
36.44    23195
36.46    25510
36.48    25851
36.5     24236
36.52    20831
36.54    16328
36.56    11692
36.58    7874
36.6     5254
36.62    3644
36.64    2789
36.66    2316
36.68    1959
36.7     1823
36.72    1653
36.74    1419
36.76    1196
36.78    1060
36.8     949
36.82    908
36.84    866
36.86    859
36.88    815
36.9     881
36.92    769
36.94    734
36.96    667
36.98    594
37.0     577
37.02    617
37.04    579
37.06    621
37.08    648
37.1     641
37.12    618
37.14    625
37.16    541
37.18    491
37.2     497
37.22    510
37.24    572
37.26    664
37.28    746
37.3     745
37.32    865
37.34    845
37.36    835
37.38    830
37.4     818
37.42    729
37.44    723
37.46    638
37.48    603
37.5     491
37.52    459
37.54    393
37.56    370
37.58    374
37.6     437
37.62    488
37.64    579
37.66    597
37.68    623
37.7     559
37.72    510
37.74    495
37.76    435
37.78    452
37.8     527
37.82    547
37.84    534
37.86    516
37.88    427
37.9     344
37.92    339
37.94    348
37.96    319
37.98    421
38.0     541
38.02    538
38.04    579
38.06    589
38.08    404
38.1     307
38.12    258
38.14    213
38.16    155
38.18    265
38.2     335
38.22    308
38.24    368
38.26    389
38.28    321
38.3     316
38.32    348
38.34    361
38.36    326
38.38    385
38.4     370
38.42    365
38.44    395
38.46    428
38.48    438
38.5     383
38.52    424
38.54    424
38.56    370
38.58    374
38.6     318
38.62    340
38.64    342
38.66    307
38.68    293
38.7     298
38.72    342
38.74    352
38.76    386
38.78    408
38.8     378
38.82    367
38.84    321
38.86    237
38.88    259
38.9     280
38.92    295
38.94    353
38.96    447
38.98    464
39.0     454
39.02    408
39.04    364
39.06    306
39.08    310
39.1     257
39.12    246
39.14    220
39.16    211
39.18    258
39.2     294
39.22    350
39.24    440
39.26    433
39.28    429
39.3     410
39.32    371
39.34    285
39.36    254
39.38    309
39.4     347
39.42    427
39.44    490
39.46    489
39.48    471
39.5     450
39.52    445
39.54    385
39.56    320
39.58    321
39.6     321
39.62    318
39.64    308
39.66    328
39.68    274
39.7     269
39.72    319
39.74    335
39.76    331
39.78    378
39.8     439
39.82    476
39.84    527
39.86    502
39.88    442
39.9     428
39.92    462
39.94    369
39.96    390
39.98    438
40.0     505
40.02    540
40.04    612
40.06    602
40.08    622
40.1     639
40.12    682
40.14    639
40.16    710
40.18    693
40.2     662
40.22    634
40.24    662
40.26    618
40.28    589
40.3     540
40.32    568
40.34    610
40.36    655
40.38    638
40.4     675
40.42    711
40.44    754
40.46    760
40.48    757
40.5     680
40.52    722
40.54    779
40.56    775
40.58    769
40.6     882
40.62    898
40.64    912
40.66    980
40.68    948
40.7     862
40.72    883
40.74    901
40.76    927
40.78    1014
40.8     1126
40.82    1138
40.84    1125
40.86    1171
40.88    1091
40.9     1056
40.92    1076
40.94    1160
40.96    1345
40.98    1537
41.0     1675
41.02    1814
41.04    1836
41.06    1894
41.08    1910
41.1     1987
41.12    2120
41.14    2305
41.16    2591
41.18    2928
41.2     3302
41.22    3822
41.24    4358
41.26    5079
41.28    5909
41.3     7002
41.32    8384
41.34    10102
41.36    12402
41.38    15574
41.4     20185
41.42    26941
41.44    36467
41.46    49217
41.48    63592
41.5     77189
41.52    86798
41.54    90342
41.56    87153
41.58    77932
41.6     64334
41.62    49134
41.64    35134
41.66    24379
41.68    17073
41.7     12483
41.72    9459
41.74    7316
41.76    5953
41.78    5065
41.8     4399
41.82    3975
41.84    3579
41.86    3218
41.88    2861
41.9     2519
41.92    2274
41.94    2046
41.96    1906
41.98    1807
42.0     1681
42.02    1583
42.04    1525
42.06    1485
42.08    1374
42.1     1320
42.12    1283
42.14    1211
42.16    1126
42.18    1141
42.2     1094
42.22    1122
42.24    1115
42.26    1056
42.28    1002
42.3     972
42.32    880
42.34    799
42.36    777
42.38    806
42.4     844
42.42    860
42.44    897
42.46    872
42.48    838
42.5     780
42.52    699
42.54    696
42.56    646
42.58    610
42.6     589
42.62    578
42.64    651
42.66    697
42.68    724
42.7     689
42.72    722
42.74    797
42.76    752
42.78    669
42.8     602
42.82    557
42.84    539
42.86    586
42.88    570
42.9     561
42.92    647
42.94    698
42.96    714
42.98    727
43.0     760
43.02    744
43.04    712
43.06    692
43.08    647
43.1     571
43.12    545
43.14    501
43.16    502
43.18    516
43.2     528
43.22    568
43.24    601
43.26    605
43.28    593
43.3     505
43.32    511
43.34    478
43.36    437
43.38    424
43.4     434
43.42    505
43.44    534
43.46    608
43.48    634
43.5     634
43.52    660
43.54    642
43.56    667
43.58    591
43.6     547
43.62    487
43.64    421
43.66    356
43.68    320
43.7     303
43.72    362
43.74    442
43.76    581
43.78    630
43.8     706
43.82    675
43.84    596
43.86    433
43.88    333
43.9     224
43.92    214
43.94    241
43.96    362
43.98    501
44.0     614
44.02    649
44.04    697
44.06    633
44.08    515
44.1     445
44.12    425
44.14    414
44.16    428
44.18    480
44.2     537
44.22    522
44.24    590
44.26    508
44.28    447
44.3     439
44.32    461
44.34    448
44.36    417
44.38    440
44.4     467
44.42    454
44.44    486
44.46    447
44.48    400
44.5     374
44.52    382
44.54    313
44.56    248
44.58    235
44.6     274
44.62    254
44.64    318
44.66    388
44.68    422
44.7     530
44.72    583
44.74    690
44.76    641
44.78    642
44.8     647
44.82    554
44.84    547
44.86    459
44.88    469
44.9     566
44.92    725
44.94    1013
44.96    1203
44.98    1535
45.0     1819
45.02    2014
45.04    2060
45.06    1961
45.08    1887
45.1     1701
45.12    1457
45.14    1196
45.16    985
45.18    831
45.2     709
45.22    615
45.24    558
45.26    558
45.28    601
45.3     565
45.32    556
45.34    511
45.36    479
45.38    490
45.4     466
45.42    439
45.44    438
45.46    480
45.48    491
45.5     465
45.52    421
45.54    425
45.56    416
45.58    425
45.6     389
45.62    379
45.64    412
45.66    371
45.68    398
45.7     430
45.72    416
45.74    458
45.76    480
45.78    543
45.8     536
45.82    464
45.84    482
45.86    386
45.88    395
45.9     336
45.92    285
45.94    317
45.96    360
45.98    377
46.0     375
46.02    363
46.04    431
46.06    423
46.08    355
46.1     329
46.12    297
46.14    335
46.16    290
46.18    221
46.2     276
46.22    290
46.24    306
46.26    318
46.28    286
46.3     372
46.32    369
46.34    357
46.36    351
46.38    353
46.4     405
46.42    340
46.44    343
46.46    381
46.48    387
46.5     449
46.52    399
46.54    418
46.56    405
46.58    401
46.6     408
46.62    324
46.64    362
46.66    367
46.68    412
46.7     451
46.72    409
46.74    478
46.76    407
46.78    368
46.8     340
46.82    315
46.84    303
46.86    239
46.88    237
46.9     227
46.92    236
46.94    345
46.96    342
46.98    361
47.0     407
47.02    456
47.04    463
47.06    393
47.08    287
47.1     299
47.12    331
47.14    364
47.16    385
47.18    464
47.2     521
47.22    566
47.24    518
47.26    458
47.28    376
47.3     396
47.32    338
47.34    285
47.36    333
47.38    362
47.4     366
47.42    373
47.44    324
47.46    339
47.48    348
47.5     335
47.52    281
47.54    257
47.56    297
47.58    298
47.6     323
47.62    398
47.64    409
47.66    437
47.68    461
47.7     450
47.72    405
47.74    327
47.76    299
47.78    299
47.8     278
47.82    307
47.84    304
47.86    355
47.88    371
47.9     377
47.92    422
47.94    419
47.96    473
47.98    508
48.0     443
48.02    429
48.04    394
48.06    331
48.08    228
48.1     183
48.12    317
48.14    340
48.16    403
48.18    426
48.2     469
48.22    484
48.24    443
48.26    392
48.28    323
48.3     323
48.32    384
48.34    378
48.36    439
48.38    521
48.4     621
48.42    596
48.44    545
48.46    467
48.48    340
48.5     227
48.52    120
48.54    84
48.56    143
48.58    264
48.6     351
48.62    416
48.64    447
48.66    517
48.68    486
48.7     493
48.72    449
48.74    413
48.76    386
48.78    373
48.8     337
48.82    295
48.84    224
48.86    258
48.88    256
48.9     311
48.92    287
48.94    235
48.96    200
48.98    217
49.0     294
49.02    277
49.04    333
49.06    458
49.08    519
49.1     533
49.12    473
49.14    391
49.16    336
49.18    342
49.2     353
49.22    279
49.24    335
49.26    409
49.28    435
49.3     436
49.32    434
49.34    451
49.36    433
49.38    441
49.4     390
49.42    344
49.44    334
49.46    334
49.48    325
49.5     291
49.52    273
49.54    317
49.56    341
49.58    353
49.6     337
49.62    389
49.64    429
49.66    502
49.68    478
49.7     463
49.72    470
49.74    468
49.76    384
49.78    277
49.8     187
49.82    253
49.84    241
49.86    305
49.88    342
49.9     399
49.92    449
49.94    435
49.96    406
49.98    340
50.0     283
50.02    273
50.04    219
50.06    240
50.08    247
50.1     260
50.12    320
50.14    337
50.16    350
50.18    272
50.2     282
50.22    236
50.24    224
50.26    233
50.28    246
50.3     309
50.32    385
50.34    358
50.36    337
50.38    290
50.4     267
50.42    218
50.44    236
50.46    241
50.48    246
50.5     258
50.52    308
50.54    283
50.56    261
50.58    246
50.6     205
50.62    278
50.64    354
50.66    344
50.68    340
50.7     345
50.72    351
50.74    303
50.76    231
50.78    159
50.8     152
50.82    272
50.84    349
50.86    369
50.88    412
50.9     457
50.92    435
50.94    411
50.96    331
50.98    276
51.0     310
51.02    355
51.04    362
51.06    380
51.08    414
51.1     444
51.12    483
51.14    499
51.16    453
51.18    442
51.2     439
51.22    364
51.24    335
51.26    278
51.28    271
51.3     265
51.32    330
51.34    340
51.36    408
51.38    492
51.4     532
51.42    504
51.44    481
51.46    399
51.48    382
51.5     325
51.52    294
51.54    265
51.56    315
51.58    363
51.6     404
51.62    376
51.64    365
51.66    370
51.68    351
51.7     321
51.72    290
51.74    300
51.76    386
51.78    454
51.8     507
51.82    524
51.84    556
51.86    542
51.88    416
51.9     316
51.92    240
51.94    220
51.96    182
51.98    188
52.0     245
52.02    357
52.04    447
52.06    523
52.08    526
52.1     569
52.12    580
52.14    618
52.16    546
52.18    533
52.2     462
52.22    445
52.24    441
52.26    442
52.28    411
52.3     388
52.32    386
52.34    471
52.36    424
52.38    357
52.4     302
52.42    308
52.44    343
52.46    366
52.48    266
52.5     270
52.52    328
52.54    391
52.56    368
52.58    392
52.6     431
52.62    449
52.64    477
52.66    445
52.68    359
52.7     302
52.72    290
52.74    244
52.76    229
52.78    247
52.8     321
52.82    399
52.84    499
52.86    572
52.88    687
52.9     657
52.92    740
52.94    734
52.96    730
52.98    673
53.0     711
53.02    662
53.04    683
53.06    684
53.08    668
53.1     651
53.12    740
53.14    766
53.16    819
53.18    848
53.2     945
53.22    1054
53.24    1237
53.26    1332
53.28    1498
53.3     1787
53.32    2179
53.34    2609
53.36    3131
53.38    3774
53.4     4574
53.42    5438
53.44    6144
53.46    6615
53.48    6760
53.5     6650
53.52    6278
53.54    5619
53.56    4826
53.58    4045
53.6     3338
53.62    2754
53.64    2234
53.66    1817
53.68    1438
53.7     1209
53.72    1029
53.74    913
53.76    886
53.78    887
53.8     829
53.82    797
53.84    749
53.86    705
53.88    653
53.9     579
53.92    495
53.94    432
53.96    406
53.98    398
54.0     291
54.02    261
54.04    265
54.06    338
54.08    385
54.1     455
54.12    474
54.14    524
54.16    567
54.18    555
54.2     458
54.22    414
54.24    410
54.26    436
54.28    324
54.3     312
54.32    269
54.34    346
54.36    387
54.38    431
54.4     445
54.42    480
54.44    563
54.46    536
54.48    428
54.5     431
54.52    327
54.54    290
54.56    219
54.58    226
54.6     206
54.62    274
54.64    329
54.66    305
54.68    388
54.7     437
54.72    381
54.74    409
54.76    411
54.78    460
54.8     473
54.82    526
54.84    463
54.86    420
54.88    412
54.9     319
54.92    289
54.94    248
54.96    206
54.98    252
55.0     277
55.02    347
55.04    375
55.06    385
55.08    386
55.1     399
55.12    386
55.14    342
55.16    314
55.18    365
55.2     389
55.22    393
55.24    366
55.26    309
55.28    256
55.3     206
55.32    157
55.34    161
55.36    190
55.38    286
55.4     385
55.42    397
55.44    416
55.46    487
55.48    555
55.5     575
55.52    589
55.54    557
55.56    570
55.58    526
55.6     505
55.62    417
55.64    349
55.66    351
55.68    381
55.7     348
55.72    373
55.74    351
55.76    311
55.78    320
55.8     354
55.82    346
55.84    286
55.86    295
55.88    329
55.9     419
55.92    467
55.94    451
55.96    410
55.98    467
56.0     497
56.02    455
56.04    398
56.06    355
56.08    325
56.1     331
56.12    239
56.14    161
56.16    126
56.18    178
56.2     248
56.22    290
56.24    398
56.26    417
56.28    464
56.3     508
56.32    485
56.34    463
56.36    484
56.38    434
56.4     392
56.42    336
56.44    309
56.46    294
56.48    292
56.5     292
56.52    362
56.54    470
56.56    484
56.58    461
56.6     447
56.62    416
56.64    434
56.66    462
56.68    441
56.7     428
56.72    530
56.74    558
56.76    518
56.78    476
56.8     426
56.82    391
56.84    358
56.86    326
56.88    332
56.9     343
56.92    410
56.94    467
56.96    478
56.98    481
57.0     516
57.02    553
57.04    535
57.06    505
57.08    522
57.1     468
57.12    469
57.14    492
57.16    510
57.18    497
57.2     460
57.22    493
57.24    473
57.26    465
57.28    478
57.3     433
57.32    448
57.34    497
57.36    553
57.38    512
57.4     508
57.42    605
57.44    667
57.46    699
57.48    719
57.5     681
57.52    606
57.54    571
57.56    549
57.58    490
57.6     476
57.62    539
57.64    642
57.66    669
57.68    737
57.7     756
57.72    741
57.74    821
57.76    852
57.78    899
57.8     913
57.82    997
57.84    1088
57.86    1111
57.88    1205
57.9     1258
57.92    1344
57.94    1477
57.96    1593
57.98    1838
58.0     2007
58.02    2266
58.04    2512
58.06    2847
58.08    3258
58.1     3763
58.12    4411
58.14    5274
58.16    6320
58.18    7692
58.2     9410
58.22    11376
58.24    13283
58.26    14931
58.28    15960
58.3     16191
58.32    15666
58.34    14519
58.36    12720
58.38    10682
58.4     8844
58.42    7188
58.44    5880
58.46    4862
58.48    4029
58.5     3277
58.52    2803
58.54    2480
58.56    2116
58.58    1777
58.6     1559
58.62    1317
58.64    1232
58.66    1221
58.68    1212
58.7     1143
58.72    1210
58.74    1285
58.76    1261
58.78    1218
58.8     1107
58.82    934
58.84    818
58.86    705
58.88    608
58.9     519
58.92    492
58.94    498
58.96    488
58.98    555
59.0     537
59.02    573
59.04    591
59.06    595
59.08    681
59.1     676
59.12    656
59.14    661
59.16    636
59.18    577
59.2     482
59.22    400
59.24    309
59.26    194
59.28    218
59.3     172
59.32    262
59.34    344
59.36    441
59.38    526
59.4     606
59.42    664
59.44    612
59.46    521
59.48    512
59.5     473
59.52    479
59.54    450
59.56    536
59.58    501
59.6     443
59.62    448
59.64    408
59.66    391
59.68    395
59.7     398
59.72    321
59.74    328
59.76    382
59.78    334
59.8     335
59.82    388
59.84    456
59.86    477
59.88    518
59.9     492
59.92    386
59.94    363
59.96    301
59.98    249
60.0     227
60.02    176
60.04    170
60.06    235
60.08    306
60.1     357
60.12    392
60.14    466
60.16    453
60.18    436
60.2     513
60.22    452
60.24    394
60.26    404
60.28    375
60.3     365
60.32    389
60.34    383
60.36    279
60.38    235
60.4     311
60.42    255
60.44    219
60.46    262
60.48    310
60.5     396
60.52    548
60.54    530
60.56    476
60.58    485
60.6     552
60.62    501
60.64    429
60.66    407
60.68    335
60.7     343
60.72    424
60.74    321
60.76    310
60.78    368
60.8     430
60.82    454
60.84    445
60.86    466
60.88    384
60.9     347
60.92    363
60.94    258
60.96    243
60.98    231
61.0     278
61.02    346
61.04    393
61.06    474
61.08    436
61.1     412
61.12    427
61.14    407
61.16    380
61.18    300
61.2     371
61.22    375
61.24    421
61.26    455
61.28    395
61.3     374
61.32    377
61.34    378
61.36    395
61.38    413
61.4     470
61.42    504
61.44    574
61.46    602
61.48    618
61.5     609
61.52    598
61.54    599
61.56    599
61.58    553
61.6     456
61.62    481
61.64    462
61.66    460
61.68    550
61.7     600
61.72    702
61.74    800
61.76    841
61.78    905
61.8     1014
61.82    1117
61.84    1197
61.86    1312
61.88    1577
61.9     1851
61.92    2309
61.94    2760
61.96    3389
61.98    4348
62.0     5784
62.02    7595
62.04    10047
62.06    12800
62.08    15680
62.1     18160
62.12    19899
62.14    20265
62.16    19419
62.18    17511
62.2     14939
62.22    12012
62.24    9371
62.26    7101
62.28    5358
62.3     4072
62.32    3179
62.34    2496
62.36    1963
62.38    1539
62.4     1243
62.42    1021
62.44    921
62.46    864
62.48    799
62.5     712
62.52    709
62.54    743
62.56    709
62.58    634
62.6     617
62.62    611
62.64    623
62.66    681
62.68    676
62.7     650
62.72    623
62.74    614
62.76    562
62.78    446
62.8     415
62.82    343
62.84    292
62.86    318
62.88    344
62.9     373
62.92    364
62.94    475
62.96    537
62.98    541
63.0     568
63.02    530
63.04    506
63.06    562
63.08    562
63.1     545
63.12    477
63.14    470
63.16    423
63.18    343
63.2     311
63.22    274
63.24    227
63.26    274
63.28    320
63.3     424
63.32    471
63.34    492
63.36    495
63.38    484
63.4     463
63.42    430
63.44    374
63.46    354
63.48    363
63.5     344
63.52    400
63.54    418
63.56    371
63.58    357
63.6     367
63.62    435
63.64    469
63.66    451
63.68    466
63.7     407
63.72    466
63.74    489
63.76    484
63.78    477
63.8     424
63.82    388
63.84    339
63.86    238
63.88    213
63.9     131
63.92    180
63.94    245
63.96    383
63.98    470
64.0     526
64.02    612
64.04    657
64.06    643
64.08    681
64.1     616
64.12    593
64.14    483
64.16    464
64.18    436
64.2     371
64.22    351
64.24    341
64.26    287
64.28    301
64.3     323
64.32    370
64.34    381
64.36    481
64.38    576
64.4     626
64.42    658
64.44    740
64.46    705
64.48    725
64.5     728
64.52    776
64.54    752
64.56    872
64.58    1012
64.6     1133
64.62    1219
64.64    1508
64.66    1690
64.68    2026
64.7     2450
64.72    3038
64.74    3581
64.76    4216
64.78    4715
64.8     5031
64.82    5059
64.84    4885
64.86    4346
64.88    3751
64.9     3090
64.92    2509
64.94    2037
64.96    1653
64.98    1402
65.0     1188
65.02    1025
65.04    909
65.06    755
65.08    643
65.1     564
65.12    516
65.14    529
65.16    461
65.18    421
65.2     356
65.22    367
65.24    380
65.26    396
65.28    417
65.3     437
65.32    454
65.34    535
65.36    564
65.38    536
65.4     505
65.42    478
65.44    454
65.46    453
65.48    442
65.5     410
65.52    394
65.54    410
65.56    411
65.58    324
65.6     211
65.62    130
65.64    138
65.66    201
65.68    296
65.7     315
65.72    349
65.74    391
65.76    489
65.78    536
65.8     493
65.82    460
65.84    468
65.86    445
65.88    430
65.9     407
65.92    407
65.94    352
65.96    315
65.98    309
66.0     295
66.02    264
66.04    228
66.06    251
66.08    246
66.1     343
66.12    386
66.14    391
66.16    407
66.18    466
66.2     505
66.22    520
66.24    460
66.26    451
66.28    353
66.3     340
66.32    320
66.34    324
66.36    367
66.38    364
66.4     362
66.42    387
66.44    327
66.46    290
66.48    242
66.5     284
66.52    310
66.54    352
66.56    401
66.58    402
66.6     377
66.62    349
66.64    386
66.66    348
66.68    304
66.7     348
66.72    285
66.74    296
66.76    292
66.78    286
66.8     316
66.82    261
66.84    293
66.86    251
66.88    226
66.9     232
66.92    206
66.94    238
66.96    285
66.98    350
67.0     450
67.02    414
67.04    434
67.06    426
67.08    410
67.1     305
67.12    295
67.14    339
67.16    327
67.18    286
67.2     318
67.22    302
67.24    302
67.26    272
67.28    291
67.3     216
67.32    233
67.34    217
67.36    170
67.38    148
67.4     174
67.42    202
67.44    211
67.46    298
67.48    381
67.5     379
67.52    367
67.54    330
67.56    329
67.58    338
67.6     314
67.62    358
67.64    372
67.66    414
67.68    402
67.7     436
67.72    442
67.74    451
67.76    439
67.78    440
67.8     412
67.82    402
67.84    388
67.86    366
67.88    396
67.9     402
67.92    358
67.94    362
67.96    311
67.98    291
68.0     313
68.02    266
68.04    284
68.06    363
68.08    431
68.1     440
68.12    439
68.14    395
68.16    371
68.18    350
68.2     323
68.22    236
68.24    199
68.26    222
68.28    201
68.3     259
68.32    310
68.34    359
68.36    452
68.38    533
68.4     560
68.42    588
68.44    557
68.46    589
68.48    516
68.5     483
68.52    458
68.54    445
68.56    414
68.58    435
68.6     432
68.62    479
68.64    500
68.66    536
68.68    545
68.7     587
68.72    654
68.74    732
68.76    818
68.78    927
68.8     1095
68.82    1307
68.84    1517
68.86    1781
68.88    2086
68.9     2443
68.92    2868
68.94    3319
68.96    3782
68.98    4113
69.0     4304
69.02    4316
69.04    4173
69.06    3836
69.08    3378
69.1     2920
69.12    2511
69.14    2141
69.16    1848
69.18    1630
69.2     1453
69.22    1302
69.24    1146
69.26    948
69.28    879
69.3     784
69.32    692
69.34    655
69.36    604
69.38    637
69.4     608
69.42    569
69.44    567
69.46    544
69.48    503
69.5     460
69.52    415
69.54    360
69.56    332
69.58    285
69.6     271
69.62    308
69.64    382
69.66    367
69.68    370
69.7     407
69.72    363
69.74    366
69.76    399
69.78    368
69.8     381
69.82    411
69.84    395
69.86    369
69.88    361
69.9     352
69.92    355
69.94    374
69.96    375
69.98    389
70.0     417
70.02    456
70.04    463
70.06    431
70.08    456
70.1     489
70.12    493
70.14    450
70.16    450
70.18    451
70.2     426
70.22    385
70.24    322
70.26    285
70.28    301
70.3     302
70.32    332
70.34    368
70.36    454
70.38    538
70.4     660
70.42    755
70.44    857
70.46    1007
70.48    1104
70.5     1251
70.52    1398
70.54    1524
70.56    1660
70.58    1736
70.6     1860
70.62    1908
70.64    1922
70.66    1918
70.68    1838
70.7     1701
70.72    1546
70.74    1337
70.76    1242
70.78    1143
70.8     1061
70.82    983
70.84    934
70.86    911
70.88    815
70.9     662
70.92    555
70.94    501
70.96    504
70.98    515
71.0     449
71.02    432
71.04    421
71.06    392
71.08    306
71.1     277
71.12    314
71.14    358
71.16    353
71.18    428
71.2     442
71.22    456
71.24    459
71.26    379
71.28    339
71.3     307
71.32    292
71.34    234
71.36    216
71.38    313
71.4     348
71.42    406
71.44    445
71.46    460
71.48    498
71.5     506
71.52    471
71.54    422
71.56    443
71.58    477
71.6     424
71.62    424
71.64    401
71.66    410
71.68    387
71.7     385
71.72    316
71.74    342
71.76    382
71.78    381
71.8     410
71.82    434
71.84    425
71.86    447
71.88    431
71.9     424
71.92    389
71.94    430
71.96    437
71.98    469
72.0     513
72.02    536
72.04    590
72.06    662
72.08    738
72.1     776
72.12    751
72.14    734
72.16    665
72.18    647
72.2     612
72.22    607
72.24    656
72.26    735
72.28    852
72.3     986
72.32    1148
72.34    1402
72.36    1721
72.38    2127
72.4     2588
72.42    3094
72.44    3691
72.46    4256
72.48    4757
72.5     5111
72.52    5285
72.54    5315
72.56    5146
72.58    4766
72.6     4292
72.62    3788
72.64    3264
72.66    2736
72.68    2315
72.7     1919
72.72    1686
72.74    1490
72.76    1369
72.78    1252
72.8     1193
72.82    1118
72.84    981
72.86    902
72.88    874
72.9     839
72.92    825
72.94    769
72.96    719
72.98    630
73.0     584
73.02    498
73.04    506
73.06    527
73.08    498
73.1     522
73.12    488
73.14    511
73.16    463
73.18    429
73.2     422
73.22    442
73.24    547
73.26    554
73.28    610
73.3     722
73.32    755
73.34    863
73.36    916
73.38    1039
73.4     1115
73.42    1191
73.44    1260
73.46    1221
73.48    1173
73.5     1078
73.52    983
73.54    878
73.56    816
73.58    784
73.6     783
73.62    738
73.64    725
73.66    625
73.68    588
73.7     593
73.72    594
73.74    523
73.76    473
73.78    455
73.8     489
73.82    440
73.84    473
73.86    434
73.88    534
73.9     546
73.92    541
73.94    511
73.96    551
73.98    630
74.0     655
74.02    654
74.04    681
74.06    716
74.08    855
74.1     912
74.12    1077
74.14    1274
74.16    1590
74.18    1832
74.2     2070
74.22    2313
74.24    2536
74.26    2669
74.28    2709
74.3     2559
74.32    2424
74.34    2148
74.36    1887
74.38    1581
74.4     1362
74.42    1226
74.44    1110
74.46    932
74.48    799
74.5     652
74.52    648
74.54    591
74.56    641
74.58    632
74.6     647
74.62    675
74.64    669
74.66    655
74.68    747
74.7     827
74.72    963
74.74    1130
74.76    1326
74.78    1470
74.8     1672
74.82    1842
74.84    1997
74.86    2218
74.88    2325
74.9     2265
74.92    2165
74.94    2046
74.96    1845
74.98    1666
75.0     1497
75.02    1368
75.04    1262
75.06    1182
75.08    1022
75.1     906
75.12    851
75.14    816
75.16    722
75.18    655
75.2     628
75.22    633
75.24    566
75.26    509
75.28    506
75.3     523
75.32    537
75.34    545
75.36    483
75.38    462
75.4     533
75.42    509
75.44    493
75.46    473
75.48    445
75.5     398
75.52    366
75.54    320
75.56    283
75.58    320
75.6     384
75.62    376
75.64    419
75.66    382
75.68    387
75.7     381
75.72    371
75.74    360
75.76    415
75.78    439
75.8     419
75.82    357
75.84    367
75.86    273
75.88    299
75.9     253
75.92    270
75.94    300
75.96    347
75.98    346
76.0     374
76.02    349
76.04    388
76.06    295
76.08    329
76.1     306
76.12    318
76.14    235
76.16    223
76.18    191
76.2     168
76.22    128
76.24    127
76.26    169
76.28    299
76.3     397
76.32    448
76.34    440
76.36    461
76.38    451
76.4     420
76.42    372
76.44    358
76.46    380
76.48    399
76.5     352
76.52    314
76.54    235
76.56    196
76.58    216
76.6     197
76.62    181
76.64    224
76.66    250
76.68    307
76.7     297
76.72    347
76.74    366
76.76    397
76.78    412
76.8     386
76.82    395
76.84    385
76.86    327
76.88    318
76.9     293
76.92    269
76.94    232
76.96    252
76.98    318
77.0     351
77.02    401
77.04    514
77.06    534
77.08    637
77.1     705
77.12    665
77.14    696
77.16    782
77.18    836
77.2     871
77.22    893
77.24    970
77.26    930
77.28    991
77.3     1025
77.32    1069
77.34    1285
77.36    1518
77.38    1806
77.4     2222
77.42    2653
77.44    3192
77.46    3842
77.48    4560
77.5     5276
77.52    5899
77.54    6367
77.56    6455
77.58    6284
77.6     5863
77.62    5285
77.64    4690
77.66    4095
77.68    3477
77.7     2939
77.72    2450
77.74    1998
77.76    1504
77.78    1145
77.8     950
77.82    903
77.84    858
77.86    789
77.88    717
77.9     704
77.92    659
77.94    620
77.96    581
77.98    629
78.0     753
78.02    830
78.04    737
78.06    681
78.08    629
78.1     525
78.12    413
78.14    347
78.16    268
78.18    303
78.2     361
78.22    372
78.24    329
78.26    368
78.28    410
78.3     357
78.32    330
78.34    338
78.36    272
78.38    281
78.4     323
78.42    279
78.44    279
78.46    277
78.48    307
78.5     322
78.52    315
78.54    383
78.56    379
78.58    395
78.6     399
78.62    361
78.64    364
78.66    362
78.68    346
78.7     321
78.72    242
78.74    293
78.76    283
78.78    237
78.8     160
78.82    162
78.84    191
78.86    232
78.88    215
78.9     215
78.92    246
78.94    394
78.96    407
78.98    398
79.0     449
79.02    494
79.04    494
79.06    473
79.08    436
79.1     401
79.12    371
79.14    328
79.16    243
79.18    181
79.2     195
79.22    174
79.24    145
79.26    93
79.28    138
79.3     134
79.32    185
79.34    251
79.36    294
79.38    334
79.4     415
79.42    439
79.44    461
79.46    430
79.48    491
79.5     515
79.52    516
79.54    521
79.56    431
79.58    371
79.6     347
79.62    304
79.64    288
79.66    323
79.68    354
79.7     410
79.72    363
79.74    325
79.76    261
79.78    192
79.8     237
79.82    245
79.84    287
79.86    352
79.88    372
79.9     358
79.92    344
79.94    375
79.96    436
79.98    538
80.0     714
80.02    757
80.04    761
80.06    745
80.08    688
80.1     548
80.12    439
80.14    404
80.16    322
80.18    331
80.2     344
80.22    278
80.24    238
80.26    304
80.28    326
80.3     346
80.32    346
80.34    385
80.36    365
80.38    350
80.4     327
80.42    301
80.44    295
80.46    354
80.48    392
80.5     367
80.52    365
80.54    344
80.56    295
80.58    291
80.6     230
80.62    241
80.64    209
80.66    223
80.68    200
80.7     158
80.72    159
80.74    160
80.76    206
80.78    302
80.8     348
80.82    408
80.84    441
80.86    439
80.88    431
80.9     403
80.92    384
80.94    390
80.96    382
80.98    332
81.0     323
81.02    243
81.04    187
81.06    177
81.08    186
81.1     196
81.12    225
81.14    225
81.16    245
81.18    216
81.2     239
81.22    169
81.24    134
81.26    207
81.28    269
81.3     298
81.32    269
81.34    241
81.36    298
81.38    246
81.4     225
81.42    194
81.44    181
81.46    197
81.48    234
81.5     234
81.52    191
81.54    239
81.56    286
81.58    261
81.6     314
81.62    371
81.64    398
81.66    390
81.68    414
81.7     408
81.72    330
81.74    337
81.76    359
81.78    378
81.8     417
81.82    465
81.84    534
81.86    483
81.88    488
81.9     468
81.92    356
81.94    360
81.96    345
81.98    338
82.0     279
82.02    280
82.04    258
82.06    166
82.08    135
82.1     85
82.12    64
82.14    94
82.16    103
82.18    173
82.2     193
82.22    273
82.24    286
82.26    299
82.28    311
82.3     342
82.32    384
82.34    351
82.36    347
82.38    353
82.4     364
82.42    362
82.44    306
82.46    329
82.48    312
82.5     337
82.52    313
82.54    294
82.56    263
82.58    288
82.6     314
82.62    322
82.64    346
82.66    371
82.68    314
82.7     355
82.72    331
82.74    335
82.76    301
82.78    323
82.8     321
82.82    277
82.84    272
82.86    225
82.88    226
82.9     279
82.92    259
82.94    295
82.96    342
82.98    326
83.0     341
83.02    287
83.04    323
83.06    337
83.08    367
83.1     337
83.12    300
83.14    335
83.16    311
83.18    255
83.2     241
83.22    169
83.24    154
83.26    150
83.28    153
83.3     155
83.32    158
83.34    218
83.36    239
83.38    285
83.4     274
83.42    251
83.44    259
83.46    319
83.48    380
83.5     395
83.52    450
83.54    457
83.56    396
83.58    342
83.6     282
83.62    197
83.64    162
83.66    113
83.68    113
83.7     126
83.72    200
83.74    192
83.76    178
83.78    209
83.8     222
83.82    234
83.84    221
83.86    189
83.88    208
83.9     232
83.92    275
83.94    294
83.96    269
83.98    281
84.0     279
84.02    296
84.04    312
84.06    296
84.08    294
84.1     307
84.12    308
84.14    310
84.16    268
84.18    259
84.2     240
84.22    219
84.24    273
84.26    203
84.28    217
84.3     182
84.32    234
84.34    262
84.36    249
84.38    273
84.4     317
84.42    325
84.44    385
84.46    347
84.48    387
84.5     345
84.52    453
84.54    440
84.56    454
84.58    435
84.6     420
84.62    399
84.64    408
84.66    396
84.68    418
84.7     393
84.72    483
84.74    504
84.76    532
84.78    442
84.8     437
84.82    383
84.84    400
84.86    429
84.88    395
84.9     400
84.92    431
84.94    377
84.96    345
84.98    288
85.0     261
85.02    211
85.04    277
85.06    310
85.08    340
85.1     335
85.12    253
85.14    184
85.16    201
85.18    203
85.2     237
85.22    306
85.24    395
85.26    442
85.28    519
85.3     421
85.32    337
85.34    245
85.36    227
85.38    232
85.4     262
85.42    260
85.44    233
85.46    218
85.48    207
85.5     136
85.52    76
85.54    45
85.56    23
85.58    137
85.6     233
85.62    329
85.64    290
85.66    320
85.68    313
85.7     351
85.72    360
85.74    364
85.76    441
85.78    498
85.8     510
85.82    520
85.84    350
85.86    225
85.88    154
85.9     172
85.92    193
85.94    274
85.96    299
85.98    280
86.0     335
86.02    332
86.04    276
86.06    225
86.08    171
86.1     197
86.12    292
86.14    393
86.16    428
86.18    470
86.2     524
86.22    561
86.24    602
86.26    610
86.28    621
86.3     731
86.32    804
86.34    902
86.36    1017
86.38    1065
86.4     1047
86.42    1014
86.44    1000
86.46    990
86.48    957
86.5     929
86.52    836
86.54    803
86.56    782
86.58    737
86.6     671
86.62    579
86.64    581
86.66    580
86.68    586
86.7     608
86.72    552
86.74    524
86.76    465
86.78    478
86.8     464
86.82    459
86.84    478
86.86    450
86.88    455
86.9     433
86.92    370
86.94    358
86.96    296
86.98    273
87.0     269
87.02    315
87.04    296
87.06    257
87.08    287
87.1     270
87.12    259
87.14    275
87.16    239
87.18    177
87.2     240
87.22    250
87.24    290
87.26    337
87.28    372
87.3     348
87.32    348
87.34    303
87.36    277
87.38    210
87.4     191
87.42    189
87.44    230
87.46    286
87.48    275
87.5     305
87.52    290
87.54    229
87.56    208
87.58    185
87.6     204
87.62    223
87.64    254
87.66    315
87.68    370
87.7     402
87.72    415
87.74    364
87.76    344
87.78    383
87.8     402
87.82    364
87.84    382
87.86    337
87.88    315
87.9     263
87.92    273
87.94    201
87.96    207
87.98    265
88.0     275
88.02    277
88.04    282
88.06    217
88.08    245
88.1     320
88.12    354
88.14    391
88.16    439
88.18    451
88.2     421
88.22    404
88.24    403
88.26    377
88.28    417
88.3     433
88.32    422
88.34    405
88.36    323
88.38    193
88.4     122
88.42    70
88.44    67
88.46    87
88.48    164
88.5     251
88.52    330
88.54    309
88.56    338
88.58    313
88.6     267
88.62    224
88.64    243
88.66    280
88.68    333
88.7     344
88.72    394
88.74    318
88.76    293
88.78    262
88.8     188
88.82    179
88.84    196
88.86    205
88.88    218
88.9     251
88.92    322
88.94    294
88.96    265
88.98    278
89.0     203
89.02    184
89.04    200
89.06    197
89.08    206
89.1     289
89.12    394
89.14    426
89.16    449
89.18    474
89.2     423
89.22    400
89.24    412
89.26    383
89.28    390
89.3     402
89.32    382
89.34    277
89.36    293
89.38    189
89.4     83
89.42    118
89.44    155
89.46    236
89.48    291
89.5     373
89.52    398
89.54    435
89.56    396
89.58    291
89.6     299
89.62    347
89.64    289
89.66    299
89.68    325
89.7     363
89.72    361
89.74    369
89.76    321
89.78    369
89.8     454
89.82    484
89.84    449
89.86    502
89.88    514
89.9     490
89.92    486
89.94    502
89.96    530
89.98    513
90.0     509
