?
5.0      726
5.02     726
5.04     943
5.06     821
5.08     834
5.1      802
5.12     833
5.14     796
5.16     793
5.18     824
5.2      797
5.22     810
5.24     795
5.26     792
5.28     786
5.3      804
5.32     817
5.34     800
5.36     820
5.38     803
5.4      760
5.42     815
5.44     784
5.46     752
5.48     740
5.5      768
5.52     768
5.54     772
5.56     756
5.58     751
5.6      769
5.62     818
5.64     789
5.66     755
5.68     759
5.7      786
5.72     783
5.74     768
5.76     763
5.78     762
5.8      762
5.82     737
5.84     737
5.86     684
5.88     704
5.9      710
5.92     702
5.94     697
5.96     714
5.98     711
6.0      732
6.02     750
6.04     742
6.06     759
6.08     783
6.1      745
6.12     738
6.14     731
6.16     747
6.18     730
6.2      737
6.22     723
6.24     721
6.26     750
6.28     745
6.3      739
6.32     765
6.34     776
6.36     783
6.38     753
6.4      732
6.42     693
6.44     713
6.46     702
6.48     682
6.5      676
6.52     702
6.54     736
6.56     734
6.58     718
6.6      715
6.62     727
6.64     778
6.66     800
6.68     725
6.7      731
6.72     723
6.74     728
6.76     698
6.78     665
6.8      650
6.82     644
6.84     686
6.86     723
6.88     678
6.9      709
6.92     669
6.94     684
6.96     671
6.98     671
7.0      640
7.02     656
7.04     675
7.06     683
7.08     705
7.1      689
7.12     662
7.14     645
7.16     672
7.18     710
7.2      690
7.22     714
7.24     672
7.26     714
7.28     753
7.3      706
7.32     681
7.34     675
7.36     689
7.38     697
7.4      662
7.42     673
7.44     676
7.46     752
7.48     724
7.5      739
7.52     793
7.54     777
7.56     759
7.58     741
7.6      751
7.62     779
7.64     761
7.66     762
7.68     740
7.7      738
7.72     766
7.74     698
7.76     671
7.78     686
7.8      727
7.82     737
7.84     751
7.86     770
7.88     771
7.9      733
7.92     755
7.94     724
7.96     710
7.98     744
8.0      718
8.02     723
8.04     738
8.06     716
8.08     688
8.1      712
8.12     705
8.14     727
8.16     694
8.18     721
8.2      690
8.22     765
8.24     778
8.26     779
8.28     797
8.3      857
8.32     824
8.34     855
8.36     789
8.38     781
8.4      783
8.42     788
8.44     737
8.46     762
8.48     767
8.5      802
8.52     729
8.54     760
8.56     780
8.58     780
8.6      823
8.62     820
8.64     862
8.66     889
8.68     882
8.7      874
8.72     835
8.74     843
8.76     807
8.78     743
8.8      734
8.82     765
8.84     776
8.86     764
8.88     813
8.9      824
8.92     884
8.94     877
8.96     842
8.98     839
9.0      834
9.02     836
9.04     810
9.06     762
9.08     739
9.1      720
9.12     721
9.14     711
9.16     717
9.18     720
9.2      763
9.22     753
9.24     762
9.26     721
9.28     736
9.3      724
9.32     754
9.34     738
9.36     744
9.38     710
9.4      679
9.42     647
9.44     649
9.46     630
9.48     653
9.5      665
9.52     722
9.54     715
9.56     765
9.58     771
9.6      689
9.62     729
9.64     721
9.66     684
9.68     622
9.7      641
9.72     627
9.74     600
9.76     643
9.78     595
9.8      553
9.82     619
9.84     598
9.86     558
9.88     599
9.9      648
9.92     630
9.94     627
9.96     669
9.98     683
10.0     696
10.02    733
10.04    710
10.06    676
10.08    659
10.1     657
10.12    621
10.14    644
10.16    663
10.18    653
10.2     608
10.22    637
10.24    644
10.26    607
10.28    600
10.3     657
10.32    628
10.34    665
10.36    656
10.38    588
10.4     585
10.42    576
10.44    588
10.46    541
10.48    572
10.5     540
10.52    536
10.54    526
10.56    564
10.58    523
10.6     572
10.62    574
10.64    626
10.66    599
10.68    638
10.7     612
10.72    659
10.74    669
10.76    746
10.78    656
10.8     718
10.82    676
10.84    730
10.86    674
10.88    660
10.9     653
10.92    663
10.94    662
10.96    652
10.98    576
11.0     650
11.02    653
11.04    694
11.06    684
11.08    667
11.1     664
11.12    630
11.14    635
11.16    618
11.18    621
11.2     644
11.22    638
11.24    623
11.26    674
11.28    648
11.3     661
11.32    651
11.34    716
11.36    726
11.38    695
11.4     674
11.42    646
11.44    629
11.46    634
11.48    625
11.5     655
11.52    655
11.54    774
11.56    821
11.58    848
11.6     896
11.62    895
11.64    844
11.66    774
11.68    723
11.7     708
11.72    657
11.74    664
11.76    641
11.78    721
11.8     732
11.82    754
11.84    770
11.86    734
11.88    762
11.9     814
11.92    759
11.94    727
11.96    761
11.98    820
12.0     785
12.02    797
12.04    827
12.06    836
12.08    917
12.1     929
12.12    870
12.14    839
12.16    824
12.18    785
12.2     741
12.22    733
12.24    761
12.26    782
12.28    839
12.3     883
12.32    866
12.34    819
12.36    813
12.38    824
12.4     798
12.42    822
12.44    796
12.46    756
12.48    802
12.5     832
12.52    804
12.54    810
12.56    843
12.58    880
12.6     842
12.62    881
12.64    843
12.66    823
12.68    849
12.7     826
12.72    820
12.74    824
12.76    827
12.78    835
12.8     830
12.82    855
12.84    854
12.86    839
12.88    864
12.9     847
12.92    857
12.94    879
12.96    896
12.98    896
13.0     885
13.02    896
13.04    878
13.06    875
13.08    872
13.1     869
13.12    890
13.14    918
13.16    957
13.18    936
13.2     898
13.22    931
13.24    914
13.26    928
13.28    933
13.3     920
13.32    856
13.34    851
13.36    879
13.38    852
13.4     846
13.42    851
13.44    891
13.46    920
13.48    914
13.5     871
13.52    870
13.54    892
13.56    919
13.58    930
13.6     924
13.62    893
13.64    918
13.66    898
13.68    936
13.7     948
13.72    964
13.74    983
13.76    1007
13.78    1031
13.8     1006
13.82    958
13.84    942
13.86    926
13.88    967
13.9     994
13.92    955
13.94    973
13.96    958
13.98    963
14.0     967
14.02    919
14.04    939
14.06    957
14.08    941
14.1     939
14.12    943
14.14    1025
14.16    1015
14.18    965
14.2     987
14.22    975
14.24    1000
14.26    994
14.28    917
14.3     841
14.32    919
14.34    971
14.36    928
14.38    890
14.4     902
14.42    883
14.44    909
14.46    931
14.48    888
14.5     888
14.52    964
14.54    920
14.56    913
14.58    924
14.6     934
14.62    895
14.64    944
14.66    956
14.68    970
14.7     1064
14.72    1058
14.74    989
14.76    1006
14.78    1046
14.8     1032
14.82    971
14.84    987
14.86    1001
14.88    1038
14.9     1073
14.92    1025
14.94    1058
14.96    1105
14.98    1144
15.0     1096
15.02    1096
15.04    1054
15.06    1020
15.08    1009
15.1     982
15.12    927
15.14    962
15.16    948
15.18    960
15.2     964
15.22    1013
15.24    950
15.26    923
15.28    963
15.3     1025
15.32    993
15.34    942
15.36    933
15.38    1018
15.4     1074
15.42    1039
15.44    963
15.46    969
15.48    993
15.5     1005
15.52    966
15.54    894
15.56    921
15.58    974
15.6     1028
15.62    956
15.64    920
15.66    988
15.68    1004
15.7     966
15.72    935
15.74    910
15.76    925
15.78    923
15.8     985
15.82    970
15.84    987
15.86    1061
15.88    1066
15.9     1067
15.92    1109
15.94    1157
15.96    1172
15.98    1222
16.0     1326
16.02    1398
16.04    1417
16.06    1423
16.08    1419
16.1     1552
16.12    1700
16.14    1750
16.16    1835
16.18    2034
16.2     2272
16.22    2454
16.24    2649
16.26    2960
16.28    3342
16.3     3840
16.32    4490
16.34    5155
16.36    6052
16.38    7086
16.4     8474
16.42    10316
16.44    12666
16.46    15838
16.48    20191
16.5     25884
16.52    32935
16.54    41003
16.56    48472
16.58    52508
16.6     52094
16.62    47301
16.64    38968
16.66    28862
16.68    18816
16.7     10373
16.72    4859
16.74    2768
16.76    2648
16.78    2616
16.8     2409
16.82    2138
16.84    1904
16.86    1750
16.88    1589
16.9     1491
16.92    1413
16.94    1403
16.96    1340
16.98    1220
17.0     1138
17.02    1209
17.04    1217
17.06    1171
17.08    1148
17.1     1149
17.12    1084
17.14    1046
17.16    976
17.18    910
17.2     863
17.22    942
17.24    912
17.26    897
17.28    941
17.3     880
17.32    861
17.34    838
17.36    845
17.38    801
17.4     790
17.42    818
17.44    794
17.46    760
17.48    801
17.5     794
17.52    789
17.54    729
17.56    701
17.58    715
17.6     768
17.62    802
17.64    791
17.66    751
17.68    788
17.7     761
17.72    722
17.74    642
17.76    580
17.78    637
17.8     632
17.82    620
17.84    638
17.86    617
17.88    650
17.9     690
17.92    695
17.94    658
17.96    609
17.98    646
18.0     624
18.02    561
18.04    584
18.06    552
18.08    576
18.1     590
18.12    546
18.14    530
18.16    483
18.18    625
18.2     670
18.22    601
18.24    642
18.26    652
18.28    598
18.3     544
18.32    458
18.34    426
18.36    506
18.38    656
18.4     624
18.42    495
18.44    492
18.46    485
18.48    472
18.5     462
18.52    420
18.54    470
18.56    603
18.58    617
18.6     523
18.62    456
18.64    432
18.66    442
18.68    486
18.7     468
18.72    482
18.74    526
18.76    573
18.78    595
18.8     516
18.82    548
18.84    536
18.86    533
18.88    509
18.9     451
18.92    435
18.94    452
18.96    464
18.98    520
19.0     501
19.02    542
19.04    492
19.06    492
19.08    490
19.1     437
19.12    431
19.14    478
19.16    550
19.18    576
19.2     533
19.22    534
19.24    435
19.26    392
19.28    389
19.3     415
19.32    405
19.34    407
19.36    390
19.38    354
19.4     355
19.42    411
19.44    390
19.46    313
19.48    329
19.5     390
19.52    384
19.54    374
19.56    355
19.58    348
19.6     409
19.62    423
19.64    457
19.66    359
19.68    259
19.7     211
19.72    259
19.74    308
19.76    288
19.78    268
19.8     327
19.82    394
19.84    483
19.86    454
19.88    316
19.9     244
19.92    301
19.94    322
19.96    272
19.98    270
20.0     296
20.02    378
20.04    404
20.06    381
20.08    242
20.1     241
20.12    294
20.14    287
20.16    257
20.18    240
20.2     334
20.22    400
20.24    414
20.26    396
20.28    344
20.3     390
20.32    375
20.34    382
20.36    344
20.38    291
20.4     337
20.42    343
20.44    364
20.46    399
20.48    420
20.5     462
20.52    454
20.54    506
20.56    484
20.58    459
20.6     429
20.62    401
20.64    411
20.66    424
20.68    386
20.7     324
20.72    281
20.74    319
20.76    330
20.78    352
20.8     314
20.82    311
20.84    382
20.86    392
20.88    375
20.9     298
20.92    337
20.94    345
20.96    370
20.98    353
21.0     329
21.02    363
21.04    441
21.06    444
21.08    397
21.1     343
21.12    385
21.14    342
21.16    382
21.18    319
21.2     311
21.22    291
21.24    361
21.26    352
21.28    296
21.3     342
21.32    417
21.34    428
21.36    412
21.38    358
21.4     351
21.42    313
21.44    359
21.46    349
21.48    302
21.5     366
21.52    367
21.54    356
21.56    269
21.58    245
21.6     246
21.62    276
21.64    365
21.66    372
21.68    382
21.7     407
21.72    364
21.74    371
21.76    401
21.78    428
21.8     440
21.82    399
21.84    335
21.86    270
21.88    292
21.9     260
21.92    283
21.94    298
21.96    358
21.98    358
22.0     388
22.02    283
22.04    223
22.06    198
22.08    228
22.1     289
22.12    335
22.14    282
22.16    282
22.18    286
22.2     330
22.22    270
22.24    263
22.26    208
22.28    211
22.3     240
22.32    243
22.34    249
22.36    278
22.38    261
22.4     280
22.42    321
22.44    379
22.46    359
22.48    358
22.5     418
22.52    407
22.54    376
22.56    301
22.58    276
22.6     270
22.62    280
22.64    257
22.66    224
22.68    197
22.7     239
22.72    170
22.74    142
22.76    177
22.78    259
22.8     352
22.82    394
22.84    393
22.86    362
22.88    279
22.9     301
22.92    212
22.94    201
22.96    176
22.98    194
23.0     226
23.02    242
23.04    249
23.06    262
23.08    258
23.1     328
23.12    317
23.14    359
23.16    348
23.18    380
23.2     335
23.22    403
23.24    400
23.26    371
23.28    282
23.3     284
23.32    272
23.34    269
23.36    270
23.38    293
23.4     317
23.42    357
23.44    286
23.46    260
23.48    296
23.5     369
23.52    303
23.54    222
23.56    180
23.58    181
23.6     254
23.62    283
23.64    293
23.66    294
23.68    371
23.7     396
23.72    368
23.74    352
23.76    256
23.78    181
23.8     206
23.82    292
23.84    326
23.86    303
23.88    338
23.9     402
23.92    459
23.94    482
23.96    346
23.98    269
24.0     248
24.02    324
24.04    311
24.06    331
24.08    318
24.1     362
24.12    376
24.14    419
24.16    370
24.18    308
24.2     241
24.22    233
24.24    169
24.26    173
24.28    146
24.3     263
24.32    358
24.34    451
24.36    349
24.38    252
24.4     189
24.42    214
24.44    227
24.46    232
24.48    216
24.5     294
24.52    316
24.54    324
24.56    194
24.58    151
24.6     167
24.62    242
24.64    315
24.66    325
24.68    301
24.7     306
24.72    280
24.74    283
24.76    186
24.78    212
24.8     277
24.82    342
24.84    349
24.86    362
24.88    332
24.9     341
24.92    318
24.94    332
24.96    261
24.98    301
25.0     327
25.02    351
25.04    285
25.06    256
25.08    221
25.1     247
25.12    222
25.14    196
25.16    104
25.18    118
25.2     142
25.22    200
25.24    193
25.26    254
25.28    283
25.3     353
25.32    304
25.34    298
25.36    237
25.38    285
25.4     266
25.42    293
25.44    255
25.46    295
25.48    266
25.5     286
25.52    207
25.54    193
25.56    140
25.58    189
25.6     207
25.62    268
25.64    237
25.66    288
25.68    253
25.7     242
25.72    240
25.74    274
25.76    287
25.78    298
25.8     324
25.82    329
25.84    285
25.86    282
25.88    264
25.9     222
25.92    263
25.94    342
25.96    354
25.98    315
26.0     326
26.02    308
26.04    240
26.06    157
26.08    71
26.1     27
26.12    56
26.14    207
26.16    262
26.18    304
26.2     340
26.22    352
26.24    301
26.26    274
26.28    200
26.3     144
26.32    163
26.34    214
26.36    272
26.38    310
26.4     353
26.42    354
26.44    322
26.46    309
26.48    249
26.5     154
26.52    120
26.54    83
26.56    105
26.58    199
26.6     244
26.62    236
26.64    216
26.66    209
26.68    204
26.7     235
26.72    234
26.74    174
26.76    221
26.78    273
26.8     295
26.82    299
26.84    261
26.86    218
26.88    173
26.9     178
26.92    170
26.94    155
26.96    226
26.98    244
27.0     280
27.02    216
27.04    174
27.06    167
27.08    150
27.1     136
27.12    168
27.14    182
27.16    231
27.18    306
27.2     317
27.22    284
27.24    256
27.26    253
27.28    189
27.3     90
27.32    88
27.34    67
27.36    51
27.38    93
27.4     113
27.42    154
27.44    198
27.46    232
27.48    241
27.5     238
27.52    273
27.54    258
27.56    210
27.58    220
27.6     228
27.62    238
27.64    151
27.66    97
27.68    117
27.7     153
27.72    223
27.74    299
27.76    261
27.78    266
27.8     249
27.82    219
27.84    117
27.86    147
27.88    193
27.9     279
27.92    296
27.94    302
27.96    212
27.98    199
28.0     177
28.02    201
28.04    202
28.06    235
28.08    180
28.1     167
28.12    103
28.14    126
28.16    179
28.18    278
28.2     284
28.22    299
28.24    283
28.26    207
28.28    125
28.3     87
28.32    35
28.34    61
28.36    125
28.38    197
28.4     192
28.42    226
28.44    248
28.46    198
28.48    179
28.5     103
28.52    47
28.54    107
28.56    191
28.58    307
28.6     310
28.62    313
28.64    312
28.66    238
28.68    174
28.7     114
28.72    79
28.74    134
28.76    220
28.78    260
28.8     268
28.82    284
28.84    327
28.86    342
28.88    317
28.9     346
28.92    296
28.94    242
28.96    249
28.98    116
29.0     101
29.02    105
29.04    109
29.06    182
29.08    205
29.1     331
29.12    408
29.14    422
29.16    404
29.18    255
29.2     157
29.22    93
29.24    37
29.26    58
29.28    103
29.3     211
29.32    309
29.34    342
29.36    278
29.38    225
29.4     122
29.42    124
29.44    121
29.46    130
29.48    182
29.5     186
29.52    195
29.54    192
29.56    165
29.58    263
29.6     298
29.62    402
29.64    411
29.66    340
29.68    210
29.7     77
29.72    27
29.74    2
29.76    93
29.78    212
29.8     278
29.82    362
29.84    321
29.86    270
29.88    202
29.9     195
29.92    153
29.94    154
29.96    214
29.98    195
30.0     196
30.02    178
30.04    129
30.06    202
30.08    268
30.1     316
30.12    293
30.14    276
30.16    267
30.18    217
30.2     151
30.22    110
30.24    81
30.26    139
30.28    173
30.3     219
30.32    186
30.34    163
30.36    191
30.38    186
30.4     257
30.42    308
30.44    243
30.46    206
30.48    137
30.5     86
30.52    41
30.54    18
30.56    65
30.58    102
30.6     251
30.62    309
30.64    205
30.66    183
30.68    130
30.7     87
30.72    161
30.74    154
30.76    197
30.78    245
30.8     276
30.82    288
30.84    156
30.86    111
30.88    43
30.9     7
30.92    90
30.94    124
30.96    188
30.98    223
31.0     245
31.02    284
31.04    231
31.06    215
31.08    185
31.1     142
31.12    173
31.14    198
31.16    214
31.18    175
31.2     142
31.22    118
31.24    83
31.26    143
31.28    211
31.3     219
31.32    336
31.34    349
31.36    313
31.38    283
31.4     160
31.42    50
31.44    9
31.46    36
31.48    101
31.5     187
31.52    309
31.54    332
31.56    344
31.58    351
31.6     256
31.62    131
31.64    63
31.66    112
31.68    187
31.7     262
31.72    268
31.74    200
31.76    114
31.78    122
31.8     104
31.82    154
31.84    255
31.86    324
31.88    440
31.9     441
31.92    331
31.94    167
31.96    32
31.98    43
32.0     22
32.02    74
32.04    117
32.06    120
32.08    191
32.1     225
32.12    206
32.14    184
32.16    132
32.18    164
32.2     162
32.22    203
32.24    244
32.26    264
32.28    228
32.3     259
32.32    268
32.34    228
32.36    211
32.38    228
32.4     219
32.42    307
32.44    323
32.46    301
32.48    253
32.5     229
32.52    190
32.54    139
32.56    134
32.58    160
32.6     137
32.62    203
32.64    205
32.66    209
32.68    268
32.7     252
32.72    147
32.74    131
32.76    170
32.78    205
32.8     212
32.82    295
32.84    294
32.86    367
32.88    469
32.9     461
32.92    391
32.94    346
32.96    295
32.98    228
33.0     215
33.02    210
33.04    140
33.06    160
33.08    216
33.1     263
33.12    277
33.14    289
33.16    329
33.18    345
33.2     360
33.22    423
33.24    397
33.26    374
33.28    427
33.3     497
33.32    586
33.34    745
33.36    930
33.38    1094
33.4     1336
33.42    1699
33.44    2187
33.46    2933
33.48    4177
33.5     5896
33.52    8010
33.54    10310
33.56    12243
33.58    13181
33.6     12992
33.62    11744
33.64    9675
33.66    7137
33.68    4786
33.7     2837
33.72    1632
33.74    1101
33.76    910
33.78    762
33.8     715
33.82    688
33.84    650
33.86    532
33.88    477
33.9     380
33.92    381
33.94    328
33.96    329
33.98    367
34.0     399
34.02    449
34.04    441
34.06    359
34.08    322
34.1     283
34.12    259
34.14    229
34.16    219
34.18    269
34.2     284
34.22    320
34.24    312
34.26    261
34.28    313
34.3     357
34.32    311
34.34    355
34.36    380
34.38    417
34.4     434
34.42    464
34.44    358
34.46    252
34.48    262
34.5     232
34.52    191
34.54    240
34.56    261
34.58    246
34.6     255
34.62    269
34.64    192
34.66    163
34.68    212
34.7     292
34.72    322
34.74    371
34.76    385
34.78    361
34.8     375
34.82    374
34.84    351
34.86    387
34.88    472
34.9     562
34.92    618
34.94    722
34.96    855
34.98    1097
35.0     1450
35.02    1978
35.04    2889
35.06    4582
35.08    6858
35.1     9266
35.12    11181
35.14    12172
35.16    12172
35.18    11070
35.2     9108
35.22    6678
35.24    4341
35.26    2704
35.28    1764
35.3     1198
35.32    877
35.34    675
35.36    591
35.38    482
35.4     512
35.42    483
35.44    514
35.46    487
35.48    446
35.5     364
35.52    324
35.54    313
35.56    293
35.58    281
35.6     368
35.62    406
35.64    457
35.66    458
35.68    469
35.7     415
35.72    380
35.74    383
35.76    368
35.78    375
35.8     413
35.82    387
35.84    314
35.86    361
35.88    315
35.9     292
35.92    321
35.94    368
35.96    389
35.98    420
36.0     445
36.02    422
36.04    382
36.06    459
36.08    398
36.1     432
36.12    429
36.14    443
36.16    484
36.18    562
36.2     659
36.22    791
36.24    915
36.26    1100
36.28    1269
36.3     1536
36.32    1826
36.34    2294
36.36    3046
36.38    4197
36.4     6253
36.42    9778
36.44    14679
36.46    20071
36.48    24556
36.5     27104
36.52    27176
36.54    24861
36.56    20537
36.58    15006
36.6     9700
36.62    5690
36.64    3336
36.66    2103
36.68    1463
36.7     1113
36.72    959
36.74    912
36.76    881
36.78    804
36.8     815
36.82    701
36.84    631
36.86    549
36.88    486
36.9     450
36.92    492
36.94    452
36.96    382
36.98    379
37.0     420
37.02    385
37.04    429
37.06    514
37.08    531
37.1     534
37.12    533
37.14    459
37.16    318
37.18    263
37.2     207
37.22    163
37.24    147
37.26    273
37.28    393
37.3     477
37.32    617
37.34    750
37.36    771
37.38    770
37.4     755
37.42    685
37.44    557
37.46    494
37.48    396
37.5     268
37.52    194
37.54    127
37.56    93
37.58    88
37.6     144
37.62    231
37.64    300
37.66    338
37.68    420
37.7     411
37.72    340
37.74    277
37.76    209
37.78    178
37.8     174
37.82    258
37.84    287
37.86    287
37.88    372
37.9     362
37.92    277
37.94    299
37.96    287
37.98    304
38.0     270
38.02    328
38.04    294
38.06    290
38.08    322
38.1     304
38.12    204
38.14    234
38.16    189
38.18    165
38.2     111
38.22    183
38.24    175
38.26    187
38.28    179
38.3     208
38.32    129
38.34    126
38.36    145
38.38    168
38.4     161
38.42    225
38.44    271
38.46    241
38.48    178
38.5     198
38.52    137
38.54    133
38.56    219
38.58    285
38.6     373
38.62    481
38.64    529
38.66    508
38.68    338
38.7     213
38.72    8
38.74    3
38.76    0
38.78    0
38.8     72
38.82    174
38.84    220
38.86    280
38.88    266
38.9     237
38.92    164
38.94    153
38.96    49
38.98    40
39.0     11
39.02    20
39.04    35
39.06    124
39.08    227
39.1     313
39.12    365
39.14    347
39.16    273
39.18    203
39.2     135
39.22    170
39.24    146
39.26    218
39.28    241
39.3     323
39.32    285
39.34    253
39.36    229
39.38    203
39.4     181
39.42    256
39.44    170
39.46    114
39.48    94
39.5     135
39.52    128
39.54    116
39.56    166
39.58    185
39.6     170
39.62    131
39.64    76
39.66    71
39.68    138
39.7     209
39.72    321
39.74    287
39.76    319
39.78    255
39.8     170
39.82    124
39.84    155
39.86    175
39.88    258
39.9     340
39.92    366
39.94    285
39.96    289
39.98    247
40.0     176
40.02    261
40.04    338
40.06    450
40.08    530
40.1     645
40.12    577
40.14    529
40.16    490
40.18    493
40.2     393
40.22    448
40.24    512
40.26    624
40.28    557
40.3     614
40.32    516
40.34    473
40.36    397
40.38    392
40.4     334
40.42    396
40.44    479
40.46    559
40.48    543
40.5     655
40.52    644
40.54    592
40.56    544
40.58    536
40.6     517
40.62    520
40.64    532
40.66    552
40.68    575
40.7     679
40.72    701
40.74    724
40.76    749
40.78    750
40.8     665
40.82    648
40.84    601
40.86    579
40.88    542
40.9     597
40.92    678
40.94    796
40.96    849
40.98    888
41.0     933
41.02    960
41.04    904
41.06    987
41.08    1060
41.1     1137
41.12    1303
41.14    1430
41.16    1493
41.18    1546
41.2     1608
41.22    1609
41.24    1710
41.26    2031
41.28    2394
41.3     2904
41.32    3625
41.34    4362
41.36    5329
41.38    6509
41.4     8117
41.42    10364
41.44    13860
41.46    19722
41.48    29908
41.5     45993
41.52    65767
41.54    84075
41.56    96265
41.58    99629
41.6     93871
41.62    80309
41.64    61354
41.66    41158
41.68    24562
41.7     14402
41.72    9525
41.74    7030
41.76    5296
41.78    3860
41.8     2994
41.82    2678
41.84    2537
41.86    2461
41.88    2438
41.9     2340
41.92    2110
41.94    1786
41.96    1522
41.98    1277
42.0     1134
42.02    1034
42.04    1088
42.06    1077
42.08    1041
42.1     1048
42.12    1004
42.14    954
42.16    863
42.18    855
42.2     802
42.22    745
42.24    683
42.26    656
42.28    574
42.3     517
42.32    509
42.34    569
42.36    619
42.38    733
42.4     788
42.42    815
42.44    705
42.46    629
42.48    514
42.5     441
42.52    402
42.54    439
42.56    495
42.58    505
42.6     559
42.62    512
42.64    453
42.66    384
42.68    378
42.7     414
42.72    451
42.74    457
42.76    566
42.78    580
42.8     577
42.82    494
42.84    466
42.86    368
42.88    335
42.9     344
42.92    391
42.94    407
42.96    562
42.98    607
43.0     588
43.02    596
43.04    516
43.06    471
43.08    399
43.1     393
43.12    395
43.14    467
43.16    526
43.18    538
43.2     515
43.22    506
43.24    457
43.26    454
43.28    400
43.3     414
43.32    391
43.34    414
43.36    355
43.38    320
43.4     306
43.42    274
43.44    270
43.46    214
43.48    204
43.5     286
43.52    330
43.54    414
43.56    439
43.58    504
43.6     471
43.62    434
43.64    428
43.66    330
43.68    262
43.7     240
43.72    189
43.74    217
43.76    173
43.78    240
43.8     225
43.82    350
43.84    446
43.86    495
43.88    481
43.9     351
43.92    301
43.94    225
43.96    96
43.98    72
44.0     139
44.02    261
44.04    369
44.06    503
44.08    520
44.1     500
44.12    444
44.14    322
44.16    210
44.18    85
44.2     101
44.22    107
44.24    183
44.26    217
44.28    238
44.3     320
44.32    317
44.34    336
44.36    327
44.38    287
44.4     281
44.42    243
44.44    241
44.46    232
44.48    215
44.5     239
44.52    243
44.54    248
44.56    241
44.58    274
44.6     266
44.62    232
44.64    303
44.66    307
44.68    345
44.7     353
44.72    387
44.74    380
44.76    378
44.78    446
44.8     451
44.82    414
44.84    429
44.86    428
44.88    510
44.9     482
44.92    525
44.94    541
44.96    639
44.98    778
45.0     1059
45.02    1435
45.04    1785
45.06    2039
45.08    2115
45.1     2045
45.12    1805
45.14    1421
45.16    989
45.18    581
45.2     425
45.22    345
45.24    310
45.26    298
45.28    339
45.3     408
45.32    439
45.34    476
45.36    482
45.38    404
45.4     358
45.42    275
45.44    245
45.46    196
45.48    132
45.5     106
45.52    155
45.54    244
45.56    263
45.58    244
45.6     229
45.62    202
45.64    207
45.66    165
45.68    101
45.7     146
45.72    173
45.74    246
45.76    266
45.78    305
45.8     287
45.82    260
45.84    255
45.86    194
45.88    184
45.9     225
45.92    195
45.94    238
45.96    249
45.98    266
46.0     276
46.02    222
46.04    196
46.06    175
46.08    178
46.1     179
46.12    177
46.14    214
46.16    191
46.18    177
46.2     193
46.22    199
46.24    269
46.26    261
46.28    276
46.3     329
46.32    364
46.34    348
46.36    260
46.38    245
46.4     204
46.42    218
46.44    193
46.46    134
46.48    206
46.5     263
46.52    311
46.54    338
46.56    385
46.58    436
46.6     388
46.62    353
46.64    269
46.66    245
46.68    230
46.7     182
46.72    152
46.74    149
46.76    188
46.78    158
46.8     164
46.82    159
46.84    234
46.86    317
46.88    337
46.9     382
46.92    355
46.94    274
46.96    216
46.98    101
47.0     78
47.02    30
47.04    53
47.06    112
47.08    167
47.1     250
47.12    203
47.14    157
47.16    235
47.18    226
47.2     261
47.22    230
47.24    215
47.26    244
47.28    183
47.3     134
47.32    57
47.34    64
47.36    165
47.38    218
47.4     341
47.42    405
47.44    442
47.46    454
47.48    398
47.5     317
47.52    212
47.54    149
47.56    111
47.58    102
47.6     107
47.62    152
47.64    102
47.66    190
47.68    260
47.7     249
47.72    257
47.74    254
47.76    281
47.78    286
47.8     241
47.82    283
47.84    265
47.86    351
47.88    385
47.9     320
47.92    342
47.94    344
47.96    345
47.98    316
48.0     288
48.02    327
48.04    298
48.06    247
48.08    250
48.1     255
48.12    358
48.14    438
48.16    469
48.18    452
48.2     470
48.22    431
48.24    307
48.26    116
48.28    38
48.3     16
48.32    9
48.34    81
48.36    105
48.38    207
48.4     343
48.42    410
48.44    455
48.46    400
48.48    348
48.5     268
48.52    257
48.54    238
48.56    189
48.58    209
48.6     150
48.62    175
48.64    195
48.66    114
48.68    107
48.7     150
48.72    231
48.74    287
48.76    353
48.78    409
48.8     399
48.82    420
48.84    352
48.86    260
48.88    222
48.9     106
48.92    60
48.94    28
48.96    75
48.98    98
49.0     110
49.02    195
49.04    255
49.06    327
49.08    349
49.1     277
49.12    296
49.14    287
49.16    277
49.18    213
49.2     174
49.22    218
49.24    181
49.26    193
49.28    170
49.3     152
49.32    211
49.34    260
49.36    303
49.38    334
49.4     377
49.42    385
49.44    320
49.46    306
49.48    222
49.5     169
49.52    113
49.54    126
49.56    151
49.58    178
49.6     246
49.62    216
49.64    232
49.66    252
49.68    234
49.7     177
49.72    141
49.74    159
49.76    184
49.78    171
49.8     179
49.82    134
49.84    112
49.86    89
49.88    103
49.9     122
49.92    142
49.94    185
49.96    272
49.98    354
50.0     415
50.02    484
50.04    456
50.06    437
50.08    380
50.1     291
50.12    145
50.14    11
50.16    8
50.18    2
50.2     0
50.22    86
50.24    209
50.26    283
50.28    314
50.3     274
50.32    174
50.34    117
50.36    81
50.38    41
50.4     73
50.42    149
50.44    242
50.46    221
50.48    240
50.5     229
50.52    193
50.54    166
50.56    170
50.58    171
50.6     274
50.62    305
50.64    301
50.66    307
50.68    371
50.7     374
50.72    347
50.74    281
50.76    226
50.78    103
50.8     106
50.82    53
50.84    26
50.86    128
50.88    217
50.9     273
50.92    402
50.94    428
50.96    380
50.98    310
51.0     241
51.02    130
51.04    67
51.06    16
51.08    15
51.1     2
51.12    37
51.14    17
51.16    62
51.18    121
51.2     189
51.22    222
51.24    283
51.26    277
51.28    335
51.3     349
51.32    340
51.34    318
51.36    324
51.38    294
51.4     282
51.42    215
51.44    147
51.46    114
51.48    167
51.5     203
51.52    248
51.54    259
51.56    289
51.58    319
51.6     315
51.62    247
51.64    249
51.66    218
51.68    236
51.7     210
51.72    187
51.74    185
51.76    206
51.78    170
51.8     152
51.82    140
51.84    174
51.86    83
51.88    128
51.9     114
51.92    193
51.94    239
51.96    240
51.98    252
52.0     332
52.02    274
52.04    284
52.06    209
52.08    288
52.1     323
52.12    377
52.14    334
52.16    338
52.18    385
52.2     431
52.22    335
52.24    319
52.26    230
52.28    213
52.3     204
52.32    160
52.34    112
52.36    173
52.38    264
52.4     341
52.42    355
52.44    345
52.46    309
52.48    272
52.5     191
52.52    134
52.54    85
52.56    114
52.58    190
52.6     265
52.62    304
52.64    414
52.66    469
52.68    434
52.7     332
52.72    278
52.74    243
52.76    231
52.78    143
52.8     88
52.82    88
52.84    171
52.86    214
52.88    194
52.9     238
52.92    321
52.94    378
52.96    362
52.98    312
53.0     293
53.02    319
53.04    305
53.06    330
53.08    349
53.1     452
53.12    477
53.14    522
53.16    525
53.18    524
53.2     518
53.22    579
53.24    603
53.26    707
53.28    816
53.3     977
53.32    1180
53.34    1503
53.36    1870
53.38    2411
53.4     3363
53.42    4852
53.44    6494
53.46    8033
53.48    9034
53.5     9246
53.52    8748
53.54    7552
53.56    5875
53.58    4063
53.6     2607
53.62    1746
53.64    1266
53.66    1042
53.68    909
53.7     747
53.72    700
53.74    646
53.76    593
53.78    564
53.8     574
53.82    609
53.84    600
53.86    538
53.88    493
53.9     415
53.92    368
53.94    274
53.96    241
53.98    279
54.0     347
54.02    430
54.04    464
54.06    521
54.08    498
54.1     447
54.12    346
54.14    218
54.16    136
54.18    53
54.2     7
54.22    34
54.24    76
54.26    213
54.28    233
54.3     281
54.32    331
54.34    367
54.36    355
54.38    270
54.4     209
54.42    182
54.44    194
54.46    165
54.48    75
54.5     79
54.52    153
54.54    229
54.56    274
54.58    229
54.6     220
54.62    299
54.64    368
54.66    281
54.68    270
54.7     300
54.72    376
54.74    408
54.76    390
54.78    295
54.8     239
54.82    213
54.84    162
54.86    45
54.88    43
54.9     57
54.92    126
54.94    141
54.96    239
54.98    348
55.0     359
55.02    353
55.04    408
55.06    322
55.08    297
55.1     306
55.12    232
55.14    159
55.16    227
55.18    191
55.2     131
55.22    116
55.24    51
55.26    8
55.28    81
55.3     173
55.32    184
55.34    301
55.36    403
55.38    447
55.4     500
55.42    468
55.44    397
55.46    354
55.48    286
55.5     177
55.52    66
55.54    75
55.56    59
55.58    65
55.6     90
55.62    142
55.64    240
55.66    250
55.68    291
55.7     295
55.72    335
55.74    396
55.76    384
55.78    335
55.8     342
55.82    294
55.84    283
55.86    225
55.88    198
55.9     237
55.92    272
55.94    283
55.96    265
55.98    257
56.0     266
56.02    255
56.04    235
56.06    180
56.08    177
56.1     228
56.12    277
56.14    275
56.16    285
56.18    250
56.2     224
56.22    207
56.24    123
56.26    46
56.28    18
56.3     53
56.32    135
56.34    186
56.36    293
56.38    320
56.4     378
56.42    441
56.44    480
56.46    461
56.48    436
56.5     369
56.52    254
56.54    168
56.56    94
56.58    49
56.6     81
56.62    169
56.64    276
56.66    346
56.68    372
56.7     367
56.72    324
56.74    288
56.76    276
56.78    252
56.8     212
56.82    210
56.84    206
56.86    165
56.88    135
56.9     180
56.92    191
56.94    217
56.96    269
56.98    258
57.0     315
57.02    326
57.04    336
57.06    298
57.08    253
57.1     286
57.12    304
57.14    262
57.16    263
57.18    276
57.2     306
57.22    291
57.24    352
57.26    328
57.28    285
57.3     397
57.32    432
57.34    387
57.36    416
57.38    419
57.4     341
57.42    324
57.44    353
57.46    287
57.48    326
57.5     370
57.52    335
57.54    349
57.56    436
57.58    456
57.6     388
57.62    374
57.64    325
57.66    321
57.68    393
57.7     392
57.72    390
57.74    471
57.76    571
57.78    615
57.8     645
57.82    648
57.84    584
57.86    620
57.88    650
57.9     684
57.92    694
57.94    747
57.96    878
57.98    1011
58.0     1199
58.02    1320
58.04    1437
58.06    1584
58.08    1759
58.1     1989
58.12    2281
58.14    2786
58.16    3509
58.18    4595
58.2     6306
58.22    8771
58.24    12185
58.26    16006
58.28    19366
58.3     21452
58.32    21883
58.34    20548
58.36    17624
58.38    13835
58.4     9876
58.42    6612
58.44    4508
58.46    3293
58.48    2592
58.5     2143
58.52    1879
58.54    1681
58.56    1503
58.58    1370
58.6     1228
58.62    1163
58.64    1046
58.66    886
58.68    749
58.7     657
58.72    601
58.74    591
58.76    506
58.78    444
58.8     425
58.82    405
58.84    350
58.86    325
58.88    310
58.9     333
58.92    408
58.94    425
58.96    429
58.98    410
59.0     397
59.02    382
59.04    348
59.06    311
59.08    232
59.1     206
59.12    241
59.14    239
59.16    296
59.18    284
59.2     261
59.22    316
59.24    362
59.26    401
59.28    333
59.3     316
59.32    355
59.34    366
59.36    439
59.38    415
59.4     350
59.42    347
59.44    306
59.46    298
59.48    166
59.5     103
59.52    109
59.54    106
59.56    196
59.58    206
59.6     260
59.62    333
59.64    368
59.66    450
59.68    397
59.7     357
59.72    334
59.74    299
59.76    294
59.78    264
59.8     269
59.82    321
59.84    356
59.86    425
59.88    406
59.9     350
59.92    324
59.94    354
59.96    321
59.98    225
60.0     171
60.02    182
60.04    178
60.06    197
60.08    160
60.1     145
60.12    176
60.14    302
60.16    383
60.18    419
60.2     434
60.22    507
60.24    525
60.26    475
60.28    428
60.3     325
60.32    213
60.34    219
60.36    216
60.38    181
60.4     101
60.42    137
60.44    134
60.46    155
60.48    206
60.5     150
60.52    144
60.54    201
60.56    223
60.58    307
60.6     345
60.62    406
60.64    468
60.66    474
60.68    479
60.7     420
60.72    362
60.74    313
60.76    242
60.78    245
60.8     261
60.82    213
60.84    223
60.86    163
60.88    212
60.9     232
60.92    273
60.94    327
60.96    292
60.98    329
61.0     333
61.02    289
61.04    299
61.06    257
61.08    293
61.1     303
61.12    318
61.14    378
61.16    316
61.18    367
61.2     377
61.22    370
61.24    295
61.26    217
61.28    202
61.3     150
61.32    156
61.34    226
61.36    248
61.38    305
61.4     368
61.42    409
61.44    410
61.46    377
61.48    359
61.5     287
61.52    277
61.54    262
61.56    269
61.58    256
61.6     290
61.62    342
61.64    439
61.66    428
61.68    407
61.7     390
61.72    428
61.74    460
61.76    523
61.78    638
61.8     711
61.82    770
61.84    895
61.86    942
61.88    998
61.9     1052
61.92    1126
61.94    1217
61.96    1352
61.98    1675
62.0     2074
62.02    2756
62.04    3865
62.06    5729
62.08    8458
62.1     11600
62.12    14706
62.14    17330
62.16    18915
62.18    19393
62.2     18566
62.22    16716
62.24    14221
62.26    11663
62.28    9423
62.3     7407
62.32    5678
62.34    4338
62.36    3180
62.38    2360
62.4     1721
62.42    1331
62.44    1140
62.46    958
62.48    906
62.5     797
62.52    747
62.54    783
62.56    795
62.58    811
62.6     777
62.62    771
62.64    751
62.66    673
62.68    618
62.7     533
62.72    460
62.74    370
62.76    352
62.78    317
62.8     328
62.82    323
62.84    319
62.86    351
62.88    387
62.9     452
62.92    468
62.94    416
62.96    394
62.98    343
63.0     337
63.02    296
63.04    319
63.06    298
63.08    288
63.1     295
63.12    315
63.14    339
63.16    338
63.18    337
63.2     388
63.22    333
63.24    393
63.26    332
63.28    336
63.3     256
63.32    223
63.34    254
63.36    230
63.38    248
63.4     350
63.42    336
63.44    452
63.46    420
63.48    477
63.5     430
63.52    369
63.54    354
63.56    310
63.58    253
63.6     234
63.62    228
63.64    259
63.66    245
63.68    312
63.7     366
63.72    395
63.74    423
63.76    415
63.78    376
63.8     295
63.82    285
63.84    224
63.86    195
63.88    176
63.9     214
63.92    251
63.94    296
63.96    338
63.98    418
64.0     478
64.02    477
64.04    455
64.06    407
64.08    325
64.1     264
64.12    156
64.14    169
64.16    144
64.18    167
64.2     269
64.22    219
64.24    270
64.26    355
64.28    407
64.3     443
64.32    409
64.34    459
64.36    385
64.38    306
64.4     309
64.42    227
64.44    239
64.46    310
64.48    270
64.5     336
64.52    292
64.54    306
64.56    289
64.58    330
64.6     445
64.62    517
64.64    668
64.66    832
64.68    955
64.7     1195
64.72    1530
64.74    2095
64.76    2736
64.78    3526
64.8     4247
64.82    4800
64.84    5169
64.86    5176
64.88    4860
64.9     4252
64.92    3574
64.94    2969
64.96    2337
64.98    1881
65.0     1434
65.02    1114
65.04    907
65.06    735
65.08    634
65.1     561
65.12    529
65.14    576
65.16    578
65.18    594
65.2     529
65.22    451
65.24    407
65.26    358
65.28    312
65.3     274
65.32    275
65.34    264
65.36    285
65.38    250
65.4     244
65.42    227
65.44    285
65.46    345
65.48    360
65.5     314
65.52    360
65.54    322
65.56    325
65.58    266
65.6     213
65.62    169
65.64    152
65.66    168
65.68    158
65.7     171
65.72    247
65.74    264
65.76    353
65.78    366
65.8     341
65.82    342
65.84    303
65.86    304
65.88    221
65.9     188
65.92    132
65.94    104
65.96    142
65.98    116
66.0     103
66.02    175
66.04    150
66.06    161
66.08    140
66.1     127
66.12    173
66.14    206
66.16    251
66.18    214
66.2     185
66.22    254
66.24    215
66.26    237
66.28    264
66.3     273
66.32    304
66.34    301
66.36    315
66.38    240
66.4     199
66.42    224
66.44    224
66.46    165
66.48    65
66.5     49
66.52    65
66.54    69
66.56    110
66.58    167
66.6     240
66.62    318
66.64    345
66.66    320
66.68    299
66.7     260
66.72    179
66.74    105
66.76    88
66.78    159
66.8     154
66.82    154
66.84    204
66.86    206
66.88    209
66.9     146
66.92    88
66.94    105
66.96    102
66.98    164
67.0     233
67.02    240
67.04    307
67.06    263
67.08    251
67.1     236
67.12    202
67.14    197
67.16    207
67.18    188
67.2     236
67.22    194
67.24    215
67.26    235
67.28    276
67.3     286
67.32    264
67.34    309
67.36    338
67.38    332
67.4     267
67.42    254
67.44    210
67.46    179
67.48    173
67.5     141
67.52    63
67.54    105
67.56    89
67.58    124
67.6     112
67.62    202
67.64    240
67.66    265
67.68    320
67.7     340
67.72    308
67.74    334
67.76    301
67.78    320
67.8     324
67.82    282
67.84    220
67.86    138
67.88    108
67.9     83
67.92    108
67.94    136
67.96    151
67.98    255
68.0     298
68.02    268
68.04    314
68.06    333
68.08    366
68.1     430
68.12    493
68.14    487
68.16    492
68.18    455
68.2     397
68.22    299
68.24    243
68.26    162
68.28    140
68.3     111
68.32    142
68.34    173
68.36    201
68.38    229
68.4     261
68.42    292
68.44    298
68.46    354
68.48    336
68.5     338
68.52    389
68.54    372
68.56    330
68.58    344
68.6     319
68.62    375
68.64    371
68.66    437
68.68    475
68.7     554
68.72    562
68.74    570
68.76    611
68.78    653
68.8     751
68.82    864
68.84    983
68.86    1191
68.88    1508
68.9     1963
68.92    2567
68.94    3341
68.96    4221
68.98    4938
69.0     5442
69.02    5567
69.04    5280
69.06    4678
69.08    3831
69.1     2937
69.12    2092
69.14    1438
69.16    1040
69.18    788
69.2     660
69.22    561
69.24    496
69.26    481
69.28    427
69.3     405
69.32    350
69.34    361
69.36    351
69.38    404
69.4     410
69.42    371
69.44    353
69.46    320
69.48    300
69.5     266
69.52    257
69.54    247
69.56    236
69.58    251
69.6     226
69.62    266
69.64    290
69.66    282
69.68    282
69.7     257
69.72    304
69.74    345
69.76    378
69.78    333
69.8     324
69.82    316
69.84    238
69.86    220
69.88    182
69.9     221
69.92    204
69.94    185
69.96    219
69.98    251
70.0     289
70.02    280
70.04    336
70.06    374
70.08    411
70.1     409
70.12    371
70.14    354
70.16    365
70.18    356
70.2     349
70.22    382
70.24    398
70.26    362
70.28    392
70.3     413
70.32    480
70.34    495
70.36    533
70.38    578
70.4     709
70.42    732
70.44    814
70.46    927
70.48    1070
70.5     1237
70.52    1389
70.54    1516
70.56    1728
70.58    1939
70.6     2120
70.62    2190
70.64    2194
70.66    2127
70.68    1959
70.7     1718
70.72    1403
70.74    1069
70.76    846
70.78    707
70.8     614
70.82    583
70.84    547
70.86    544
70.88    491
70.9     381
70.92    303
70.94    231
70.96    192
70.98    176
71.0     140
71.02    158
71.04    234
71.06    263
71.08    314
71.1     315
71.12    342
71.14    331
71.16    371
71.18    363
71.2     321
71.22    330
71.24    322
71.26    326
71.28    347
71.3     350
71.32    291
71.34    241
71.36    250
71.38    229
71.4     194
71.42    147
71.44    120
71.46    105
71.48    142
71.5     168
71.52    148
71.54    165
71.56    170
71.58    212
71.6     241
71.62    284
71.64    341
71.66    356
71.68    390
71.7     357
71.72    341
71.74    294
71.76    218
71.78    206
71.8     212
71.82    241
71.84    258
71.86    279
71.88    295
71.9     309
71.92    353
71.94    374
71.96    369
71.98    360
72.0     384
72.02    326
72.04    367
72.06    380
72.08    388
72.1     442
72.12    434
72.14    440
72.16    437
72.18    438
72.2     428
72.22    454
72.24    570
72.26    612
72.28    686
72.3     709
72.32    704
72.34    776
72.36    850
72.38    975
72.4     1192
72.42    1509
72.44    1967
72.46    2614
72.48    3486
72.5     4487
72.52    5436
72.54    6166
72.56    6511
72.58    6510
72.6     6088
72.62    5307
72.64    4374
72.66    3456
72.68    2644
72.7     2037
72.72    1511
72.74    1165
72.76    942
72.78    824
72.8     692
72.82    600
72.84    572
72.86    542
72.88    486
72.9     487
72.92    462
72.94    448
72.96    489
72.98    477
73.0     438
73.02    378
73.04    374
73.06    369
73.08    391
73.1     421
73.12    437
73.14    400
73.16    381
73.18    324
73.2     312
73.22    291
73.24    280
73.26    315
73.28    300
73.3     313
73.32    343
73.34    374
73.36    471
73.38    638
73.4     832
73.42    998
73.44    1068
73.46    1130
73.48    1151
73.5     1128
73.52    1085
73.54    1048
73.56    980
73.58    900
73.6     744
73.62    575
73.64    450
73.66    392
73.68    389
73.7     372
73.72    379
73.74    374
73.76    303
73.78    301
73.8     289
73.82    313
73.84    340
73.86    312
73.88    309
73.9     334
73.92    333
73.94    314
73.96    298
73.98    345
74.0     376
74.02    436
74.04    399
74.06    393
74.08    434
74.1     458
74.12    460
74.14    578
74.16    695
74.18    909
74.2     1175
74.22    1539
74.24    1855
74.26    2205
74.28    2439
74.3     2528
74.32    2575
74.34    2537
74.36    2255
74.38    2091
74.4     1841
74.42    1648
74.44    1358
74.46    1135
74.48    921
74.5     839
74.52    814
74.54    692
74.56    641
74.58    708
74.6     724
74.62    726
74.64    627
74.66    672
74.68    690
74.7     776
74.72    822
74.74    872
74.76    1123
74.78    1408
74.8     1663
74.82    1956
74.84    2274
74.86    2644
74.88    2753
74.9     2765
74.92    2601
74.94    2339
74.96    2050
74.98    1662
75.0     1233
75.02    950
75.04    741
75.06    641
75.08    511
75.1     519
75.12    504
75.14    509
75.16    492
75.18    448
75.2     433
75.22    431
75.24    380
75.26    384
75.28    378
75.3     364
75.32    321
75.34    244
75.36    169
75.38    114
75.4     140
75.42    132
75.44    115
75.46    170
75.48    196
75.5     247
75.52    317
75.54    354
75.56    400
75.58    488
75.6     556
75.62    473
75.64    465
75.66    433
75.68    363
75.7     344
75.72    298
75.74    227
75.76    199
75.78    197
75.8     128
75.82    90
75.84    184
75.86    181
75.88    198
75.9     237
75.92    241
75.94    205
75.96    214
75.98    188
76.0     195
76.02    246
76.04    297
76.06    277
76.08    317
76.1     344
76.12    325
76.14    306
76.16    279
76.18    265
76.2     277
76.22    255
76.24    242
76.26    206
76.28    190
76.3     199
76.32    199
76.34    205
76.36    215
76.38    211
76.4     240
76.42    197
76.44    168
76.46    151
76.48    166
76.5     200
76.52    166
76.54    151
76.56    142
76.58    130
76.6     209
76.62    262
76.64    358
76.66    427
76.68    449
76.7     399
76.72    348
76.74    259
76.76    214
76.78    190
76.8     215
76.82    271
76.84    327
76.86    358
76.88    307
76.9     267
76.92    318
76.94    288
76.96    406
76.98    466
77.0     501
77.02    483
77.04    486
77.06    486
77.08    376
77.1     343
77.12    346
77.14    365
77.16    439
77.18    445
77.2     418
77.22    444
77.24    483
77.26    506
77.28    503
77.3     511
77.32    545
77.34    601
77.36    656
77.38    748
77.4     869
77.42    1118
77.44    1333
77.46    1773
77.48    2423
77.5     3275
77.52    4285
77.54    5261
77.56    6154
77.58    6757
77.6     6957
77.62    6847
77.64    6290
77.66    5664
77.68    4924
77.7     4187
77.72    3467
77.74    2791
77.76    2270
77.78    1774
77.8     1331
77.82    1092
77.84    879
77.86    754
77.88    694
77.9     572
77.92    518
77.94    485
77.96    520
77.98    501
78.0     456
78.02    549
78.04    604
78.06    583
78.08    664
78.1     564
78.12    539
78.14    488
78.16    423
78.18    310
78.2     225
78.22    240
78.24    226
78.26    196
78.28    253
78.3     202
78.32    191
78.34    180
78.36    116
78.38    88
78.4     87
78.42    151
78.44    191
78.46    184
78.48    227
78.5     285
78.52    319
78.54    317
78.56    311
78.58    357
78.6     335
78.62    352
78.64    320
78.66    238
78.68    218
78.7     267
78.72    198
78.74    190
78.76    232
78.78    291
78.8     263
78.82    232
78.84    225
78.86    169
78.88    213
78.9     272
78.92    241
78.94    271
78.96    324
78.98    361
79.0     288
79.02    210
79.04    222
79.06    228
79.08    254
79.1     270
79.12    285
79.14    311
79.16    374
79.18    347
79.2     310
79.22    316
79.24    350
79.26    351
79.28    232
79.3     196
79.32    182
79.34    139
79.36    132
79.38    117
79.4     160
79.42    234
79.44    229
79.46    232
79.48    195
79.5     194
79.52    214
79.54    194
79.56    199
79.58    239
79.6     284
79.62    338
79.64    361
79.66    397
79.68    438
79.7     386
79.72    306
79.74    310
79.76    236
79.78    255
79.8     266
79.82    287
79.84    326
79.86    317
79.88    302
79.9     255
79.92    197
79.94    291
79.96    329
79.98    332
80.0     432
80.02    457
80.04    497
80.06    480
80.08    459
80.1     465
80.12    436
80.14    415
80.16    427
80.18    339
80.2     349
80.22    328
80.24    353
80.26    349
80.28    362
80.3     420
80.32    393
80.34    372
80.36    392
80.38    328
80.4     216
80.42    191
80.44    157
80.46    113
80.48    73
80.5     143
80.52    160
80.54    243
80.56    281
80.58    261
80.6     232
80.62    255
80.64    314
80.66    319
80.68    297
80.7     382
80.72    357
80.74    283
80.76    239
80.78    136
80.8     86
80.82    99
80.84    160
80.86    209
80.88    209
80.9     253
80.92    231
80.94    143
80.96    158
80.98    147
81.0     153
81.02    181
81.04    239
81.06    262
81.08    276
81.1     266
81.12    248
81.14    169
81.16    208
81.18    266
81.2     250
81.22    232
81.24    263
81.26    211
81.28    197
81.3     131
81.32    113
81.34    146
81.36    174
81.38    208
81.4     259
81.42    263
81.44    280
81.46    228
81.48    163
81.5     178
81.52    232
81.54    277
81.56    251
81.58    225
81.6     271
81.62    276
81.64    284
81.66    259
81.68    230
81.7     290
81.72    324
81.74    337
81.76    253
81.78    158
81.8     138
81.82    125
81.84    94
81.86    58
81.88    70
81.9     120
81.92    182
81.94    247
81.96    225
81.98    224
82.0     265
82.02    269
82.04    253
82.06    214
82.08    187
82.1     137
82.12    116
82.14    90
82.16    90
82.18    128
82.2     176
82.22    252
82.24    290
82.26    296
82.28    277
82.3     229
82.32    195
82.34    191
82.36    231
82.38    239
82.4     261
82.42    281
82.44    229
82.46    214
82.48    212
82.5     220
82.52    201
82.54    259
82.56    268
82.58    249
82.6     233
82.62    192
82.64    159
82.66    121
82.68    170
82.7     192
82.72    193
82.74    220
82.76    200
82.78    201
82.8     171
82.82    213
82.84    226
82.86    181
82.88    217
82.9     225
82.92    273
82.94    174
82.96    160
82.98    144
83.0     129
83.02    223
83.04    256
83.06    295
83.08    344
83.1     412
83.12    434
83.14    338
83.16    310
83.18    210
83.2     152
83.22    126
83.24    116
83.26    181
83.28    191
83.3     175
83.32    156
83.34    157
83.36    64
83.38    43
83.4     38
83.42    21
83.44    5
83.46    134
83.48    208
83.5     271
83.52    329
83.54    385
83.56    393
83.58    383
83.6     393
83.62    401
83.64    340
83.66    370
83.68    298
83.7     240
83.72    202
83.74    178
83.76    170
83.78    181
83.8     210
83.82    177
83.84    170
83.86    157
83.88    24
83.9     17
83.92    19
83.94    82
83.96    106
83.98    139
84.0     160
84.02    176
84.04    288
84.06    278
84.08    302
84.1     319
84.12    356
84.14    413
84.16    375
84.18    311
84.2     254
84.22    192
84.24    157
84.26    120
84.28    101
84.3     14
84.32    73
84.34    136
84.36    198
84.38    211
84.4     224
84.42    254
84.44    242
84.46    244
84.48    180
84.5     238
84.52    293
84.54    356
84.56    416
84.58    426
84.6     422
84.62    403
84.64    366
84.66    336
84.68    312
84.7     391
84.72    311
84.74    393
84.76    382
84.78    401
84.8     357
84.82    315
84.84    283
84.86    246
84.88    255
84.9     251
84.92    214
84.94    301
84.96    322
84.98    423
85.0     372
85.02    373
85.04    367
85.06    350
85.08    353
85.1     282
85.12    318
85.14    320
85.16    271
85.18    261
85.2     134
85.22    139
85.24    178
85.26    215
85.28    151
85.3     57
85.32    78
85.34    22
85.36    19
85.38    68
85.4     119
85.42    224
85.44    348
85.46    451
85.48    424
85.5     373
85.52    357
85.54    326
85.56    357
85.58    372
85.6     383
85.62    298
85.64    266
85.66    214
85.68    171
85.7     133
85.72    136
85.74    94
85.76    110
85.78    144
85.8     203
85.82    121
85.84    86
85.86    37
85.88    70
85.9     124
85.92    172
85.94    179
85.96    205
85.98    266
86.0     388
86.02    377
86.04    401
86.06    354
86.08    386
86.1     430
86.12    387
86.14    336
86.16    280
86.18    301
86.2     299
86.22    284
86.24    287
86.26    280
86.28    317
86.3     370
86.32    416
86.34    531
86.36    645
86.38    834
86.4     979
86.42    1136
86.44    1249
86.46    1294
86.48    1319
86.5     1289
86.52    1189
86.54    1101
86.56    970
86.58    837
86.6     688
86.62    572
86.64    485
86.66    426
86.68    445
86.7     417
86.72    426
86.74    470
86.76    460
86.78    400
86.8     372
86.82    356
86.84    370
86.86    418
86.88    434
86.9     468
86.92    445
86.94    406
86.96    328
86.98    317
87.0     307
87.02    227
87.04    202
87.06    212
87.08    152
87.1     90
87.12    26
87.14    42
87.16    63
87.18    127
87.2     196
87.22    268
87.24    311
87.26    322
87.28    285
87.3     240
87.32    174
87.34    182
87.36    198
87.38    172
87.4     158
87.42    125
87.44    108
87.46    115
87.48    131
87.5     118
87.52    94
87.54    200
87.56    210
87.58    246
87.6     252
87.62    187
87.64    224
87.66    191
87.68    176
87.7     131
87.72    169
87.74    185
87.76    194
87.78    302
87.8     427
87.82    468
87.84    441
87.86    320
87.88    295
87.9     236
87.92    234
87.94    162
87.96    136
87.98    170
88.0     267
88.02    274
88.04    218
88.06    173
88.08    214
88.1     204
88.12    231
88.14    195
88.16    143
88.18    170
88.2     212
88.22    207
88.24    203
88.26    217
88.28    253
88.3     255
88.32    326
88.34    301
88.36    312
88.38    337
88.4     303
88.42    254
88.44    229
88.46    239
88.48    196
88.5     132
88.52    138
88.54    162
88.56    237
88.58    248
88.6     231
88.62    262
88.64    269
88.66    298
88.68    255
88.7     250
88.72    244
88.74    268
88.76    301
88.78    300
88.8     291
88.82    245
88.84    218
88.86    257
88.88    215
88.9     202
88.92    182
88.94    100
88.96    110
88.98    24
89.0     56
89.02    81
89.04    141
89.06    209
89.08    224
89.1     302
89.12    337
89.14    275
89.16    287
89.18    258
89.2     287
89.22    290
89.24    260
89.26    278
89.28    261
89.3     248
89.32    99
89.34    60
89.36    37
89.38    66
89.4     19
89.42    75
89.44    133
89.46    184
89.48    196
89.5     186
89.52    99
89.54    157
89.56    181
89.58    218
89.6     264
89.62    334
89.64    379
89.66    353
89.68    367
89.7     373
89.72    319
89.74    321
89.76    303
89.78    300
89.8     352
89.82    372
89.84    376
89.86    339
89.88    357
89.9     338
89.92    281
89.94    262
89.96    235
89.98    231
90.0     250
