?
5.0      652
5.02     652
5.04     844
5.06     734
5.08     778
5.1      743
5.12     785
5.14     811
5.16     818
5.18     818
5.2      849
5.22     843
5.24     836
5.26     839
5.28     818
5.3      798
5.32     811
5.34     772
5.36     761
5.38     766
5.4      780
5.42     770
5.44     779
5.46     784
5.48     802
5.5      809
5.52     825
5.54     815
5.56     853
5.58     831
5.6      811
5.62     801
5.64     804
5.66     780
5.68     792
5.7      813
5.72     847
5.74     847
5.76     828
5.78     783
5.8      796
5.82     766
5.84     764
5.86     769
5.88     772
5.9      818
5.92     807
5.94     806
5.96     780
5.98     761
6.0      795
6.02     770
6.04     804
6.06     788
6.08     768
6.1      780
6.12     746
6.14     746
6.16     728
6.18     733
6.2      747
6.22     748
6.24     785
6.26     796
6.28     855
6.3      851
6.32     844
6.34     805
6.36     803
6.38     777
6.4      736
6.42     730
6.44     769
6.46     770
6.48     813
6.5      775
6.52     776
6.54     732
6.56     768
6.58     735
6.6      748
6.62     776
6.64     805
6.66     798
6.68     766
6.7      763
6.72     764
6.74     729
6.76     760
6.78     751
6.8      791
6.82     793
6.84     801
6.86     813
6.88     809
6.9      811
6.92     793
6.94     759
6.96     755
6.98     766
7.0      789
7.02     773
7.04     795
7.06     787
7.08     820
7.1      755
7.12     734
7.14     729
7.16     711
7.18     729
7.2      741
7.22     739
7.24     764
7.26     764
7.28     752
7.3      772
7.32     799
7.34     805
7.36     825
7.38     835
7.4      878
7.42     842
7.44     832
7.46     793
7.48     776
7.5      782
7.52     781
7.54     776
7.56     783
7.58     760
7.6      839
7.62     817
7.64     810
7.66     814
7.68     837
7.7      791
7.72     813
7.74     765
7.76     733
7.78     699
7.8      742
7.82     765
7.84     742
7.86     794
7.88     835
7.9      860
7.92     863
7.94     866
7.96     887
7.98     848
8.0      846
8.02     848
8.04     780
8.06     843
8.08     812
8.1      825
8.12     820
8.14     840
8.16     855
8.18     838
8.2      841
8.22     789
8.24     735
8.26     760
8.28     713
8.3      764
8.32     779
8.34     797
8.36     814
8.38     766
8.4      768
8.42     696
8.44     710
8.46     732
8.48     761
8.5      833
8.52     835
8.54     869
8.56     876
8.58     849
8.6      855
8.62     789
8.64     815
8.66     823
8.68     797
8.7      803
8.72     812
8.74     815
8.76     818
8.78     846
8.8      803
8.82     757
8.84     764
8.86     771
8.88     720
8.9      758
8.92     801
8.94     796
8.96     804
8.98     860
9.0      809
9.02     800
9.04     816
9.06     813
9.08     800
9.1      801
9.12     791
9.14     822
9.16     827
9.18     819
9.2      815
9.22     795
9.24     828
9.26     836
9.28     826
9.3      742
9.32     712
9.34     753
9.36     745
9.38     719
9.4      704
9.42     683
9.44     685
9.46     735
9.48     727
9.5      707
9.52     719
9.54     758
9.56     751
9.58     744
9.6      715
9.62     664
9.64     621
9.66     655
9.68     621
9.7      633
9.72     608
9.74     616
9.76     643
9.78     665
9.8      684
9.82     680
9.84     694
9.86     715
9.88     711
9.9      719
9.92     692
9.94     705
9.96     739
9.98     732
10.0     737
10.02    693
10.04    667
10.06    672
10.08    645
10.1     634
10.12    618
10.14    606
10.16    666
10.18    653
10.2     667
10.22    679
10.24    715
10.26    749
10.28    721
10.3     716
10.32    673
10.34    650
10.36    685
10.38    653
10.4     638
10.42    684
10.44    705
10.46    693
10.48    698
10.5     695
10.52    694
10.54    691
10.56    710
10.58    722
10.6     711
10.62    764
10.64    732
10.66    680
10.68    674
10.7     705
10.72    679
10.74    673
10.76    695
10.78    666
10.8     707
10.82    744
10.84    702
10.86    682
10.88    710
10.9     755
10.92    705
10.94    745
10.96    696
10.98    690
11.0     722
11.02    735
11.04    777
11.06    739
11.08    729
11.1     758
11.12    692
11.14    728
11.16    712
11.18    685
11.2     672
11.22    723
11.24    763
11.26    696
11.28    743
11.3     808
11.32    750
11.34    780
11.36    767
11.38    662
11.4     641
11.42    629
11.44    644
11.46    679
11.48    742
11.5     758
11.52    775
11.54    801
11.56    839
11.58    784
11.6     761
11.62    778
11.64    858
11.66    889
11.68    847
11.7     822
11.72    827
11.74    832
11.76    858
11.78    838
11.8     816
11.82    831
11.84    853
11.86    853
11.88    814
11.9     793
11.92    777
11.94    805
11.96    835
11.98    840
12.0     785
12.02    798
12.04    756
12.06    807
12.08    809
12.1     770
12.12    771
12.14    860
12.16    852
12.18    845
12.2     852
12.22    853
12.24    802
12.26    851
12.28    820
12.3     834
12.32    852
12.34    855
12.36    821
12.38    855
12.4     835
12.42    785
12.44    798
12.46    818
12.48    874
12.5     895
12.52    913
12.54    883
12.56    902
12.58    876
12.6     821
12.62    825
12.64    899
12.66    875
12.68    844
12.7     849
12.72    886
12.74    854
12.76    852
12.78    834
12.8     788
12.82    816
12.84    855
12.86    824
12.88    770
12.9     827
12.92    847
12.94    823
12.96    805
12.98    813
13.0     794
13.02    832
13.04    836
13.06    836
13.08    842
13.1     886
13.12    925
13.14    884
13.16    877
13.18    907
13.2     933
13.22    938
13.24    917
13.26    828
13.28    841
13.3     861
13.32    880
13.34    865
13.36    866
13.38    864
13.4     878
13.42    906
13.44    916
13.46    892
13.48    911
13.5     945
13.52    972
13.54    952
13.56    963
13.58    1016
13.6     1005
13.62    986
13.64    1021
13.66    1040
13.68    1032
13.7     1002
13.72    956
13.74    888
13.76    913
13.78    966
13.8     942
13.82    921
13.84    958
13.86    953
13.88    987
13.9     960
13.92    947
13.94    987
13.96    1047
13.98    1077
14.0     1054
14.02    1064
14.04    1025
14.06    931
14.08    959
14.1     973
14.12    990
14.14    1031
14.16    1056
14.18    1052
14.2     1020
14.22    1018
14.24    969
14.26    961
14.28    1038
14.3     1030
14.32    1035
14.34    1011
14.36    1004
14.38    1061
14.4     1070
14.42    1099
14.44    1103
14.46    1099
14.48    1097
14.5     1077
14.52    1068
14.54    986
14.56    925
14.58    988
14.6     1032
14.62    1062
14.64    1072
14.66    1117
14.68    1120
14.7     1154
14.72    1157
14.74    1103
14.76    1103
14.78    1077
14.8     1060
14.82    1062
14.84    1047
14.86    1046
14.88    999
14.9     1046
14.92    1115
14.94    1213
14.96    1269
14.98    1260
15.0     1310
15.02    1323
15.04    1196
15.06    1139
15.08    1083
15.1     991
15.12    958
15.14    976
15.16    972
15.18    998
15.2     1048
15.22    1051
15.24    1063
15.26    1088
15.28    1117
15.3     1101
15.32    1145
15.34    1213
15.36    1237
15.38    1203
15.4     1173
15.42    1129
15.44    1104
15.46    1056
15.48    1084
15.5     1102
15.52    1140
15.54    1197
15.56    1224
15.58    1240
15.6     1205
15.62    1167
15.64    1191
15.66    1216
15.68    1195
15.7     1148
15.72    1135
15.74    1144
15.76    1139
15.78    1148
15.8     1189
15.82    1254
15.84    1324
15.86    1403
15.88    1440
15.9     1478
15.92    1593
15.94    1636
15.96    1675
15.98    1768
16.0     1860
16.02    1900
16.04    1951
16.06    2077
16.08    2155
16.1     2238
16.12    2365
16.14    2506
16.16    2616
16.18    2803
16.2     3015
16.22    3265
16.24    3660
16.26    4076
16.28    4539
16.3     5102
16.32    5826
16.34    6691
16.36    7623
16.38    8918
16.4     10526
16.42    12482
16.44    15070
16.46    18328
16.48    22758
16.5     28705
16.52    36301
16.54    44126
16.56    50002
16.58    52327
16.6     50377
16.62    44519
16.64    35840
16.66    25848
16.68    16499
16.7     9466
16.72    5707
16.74    4196
16.76    3631
16.78    3307
16.8     2983
16.82    2739
16.84    2476
16.86    2255
16.88    2127
16.9     1973
16.92    1931
16.94    1833
16.96    1724
16.98    1688
17.0     1681
17.02    1637
17.04    1564
17.06    1549
17.08    1560
17.1     1446
17.12    1358
17.14    1315
17.16    1268
17.18    1242
17.2     1180
17.22    1149
17.24    1151
17.26    1163
17.28    1174
17.3     1122
17.32    1050
17.34    1110
17.36    1131
17.38    1094
17.4     1051
17.42    1064
17.44    1064
17.46    1025
17.48    1008
17.5     942
17.52    899
17.54    943
17.56    895
17.58    846
17.6     800
17.62    857
17.64    934
17.66    917
17.68    897
17.7     823
17.72    778
17.74    817
17.76    766
17.78    769
17.8     768
17.82    836
17.84    829
17.86    822
17.88    831
17.9     755
17.92    724
17.94    770
17.96    745
17.98    707
18.0     706
18.02    739
18.04    717
18.06    700
18.08    726
18.1     695
18.12    663
18.14    601
18.16    599
18.18    552
18.2     539
18.22    494
18.24    508
18.26    479
18.28    519
18.3     583
18.32    595
18.34    557
18.36    635
18.38    643
18.4     594
18.42    499
18.44    555
18.46    558
18.48    595
18.5     627
18.52    610
18.54    552
18.56    569
18.58    540
18.6     451
18.62    376
18.64    440
18.66    431
18.68    467
18.7     511
18.72    562
18.74    557
18.76    558
18.78    527
18.8     467
18.82    542
18.84    569
18.86    541
18.88    534
18.9     573
18.92    626
18.94    658
18.96    670
18.98    568
19.0     519
19.02    571
19.04    610
19.06    553
19.08    503
19.1     491
19.12    506
19.14    499
19.16    453
19.18    327
19.2     316
19.22    349
19.24    389
19.26    354
19.28    422
19.3     462
19.32    482
19.34    501
19.36    519
19.38    516
19.4     526
19.42    506
19.44    395
19.46    306
19.48    299
19.5     304
19.52    340
19.54    345
19.56    382
19.58    466
19.6     538
19.62    529
19.64    463
19.66    434
19.68    386
19.7     338
19.72    386
19.74    372
19.76    420
19.78    495
19.8     506
19.82    459
19.84    475
19.86    544
19.88    510
19.9     436
19.92    419
19.94    411
19.96    397
19.98    377
20.0     274
20.02    215
20.04    231
20.06    303
20.08    292
20.1     261
20.12    255
20.14    274
20.16    272
20.18    277
20.2     283
20.22    301
20.24    336
20.26    331
20.28    391
20.3     436
20.32    474
20.34    496
20.36    506
20.38    457
20.4     394
20.42    322
20.44    339
20.46    347
20.48    383
20.5     393
20.52    402
20.54    460
20.56    453
20.58    331
20.6     253
20.62    269
20.64    404
20.66    438
20.68    407
20.7     378
20.72    405
20.74    467
20.76    395
20.78    323
20.8     313
20.82    357
20.84    443
20.86    477
20.88    500
20.9     496
20.92    524
20.94    508
20.96    435
20.98    357
21.0     313
21.02    306
21.04    359
21.06    398
21.08    386
21.1     333
21.12    332
21.14    384
21.16    411
21.18    353
21.2     328
21.22    285
21.24    312
21.26    339
21.28    338
21.3     303
21.32    328
21.34    440
21.36    524
21.38    492
21.4     439
21.42    348
21.44    385
21.46    403
21.48    361
21.5     206
21.52    180
21.54    233
21.56    285
21.58    298
21.6     296
21.62    288
21.64    351
21.66    379
21.68    375
21.7     274
21.72    237
21.74    161
21.76    209
21.78    283
21.8     299
21.82    307
21.84    391
21.86    489
21.88    575
21.9     544
21.92    398
21.94    217
21.96    231
21.98    250
22.0     225
22.02    171
22.04    189
22.06    262
22.08    309
22.1     352
22.12    251
22.14    184
22.16    166
22.18    203
22.2     257
22.22    250
22.24    242
22.26    251
22.28    207
22.3     281
22.32    251
22.34    255
22.36    217
22.38    303
22.4     364
22.42    410
22.44    376
22.46    337
22.48    261
22.5     256
22.52    226
22.54    235
22.56    265
22.58    301
22.6     233
22.62    183
22.64    123
22.66    150
22.68    189
22.7     187
22.72    267
22.74    295
22.76    352
22.78    296
22.8     244
22.82    258
22.84    327
22.86    428
22.88    452
22.9     423
22.92    426
22.94    362
22.96    311
22.98    249
23.0     246
23.02    248
23.04    242
23.06    224
23.08    187
23.1     177
23.12    179
23.14    213
23.16    209
23.18    252
23.2     251
23.22    243
23.24    257
23.26    277
23.28    286
23.3     276
23.32    285
23.34    312
23.36    292
23.38    296
23.4     294
23.42    311
23.44    336
23.46    354
23.48    346
23.5     348
23.52    370
23.54    382
23.56    377
23.58    328
23.6     290
23.62    259
23.64    149
23.66    167
23.68    197
23.7     244
23.72    265
23.74    256
23.76    333
23.78    379
23.8     373
23.82    265
23.84    176
23.86    197
23.88    240
23.9     197
23.92    200
23.94    163
23.96    272
23.98    294
24.0     292
24.02    238
24.04    276
24.06    273
24.08    314
24.1     254
24.12    283
24.14    227
24.16    260
24.18    176
24.2     205
24.22    182
24.24    249
24.26    235
24.28    279
24.3     272
24.32    280
24.34    279
24.36    295
24.38    250
24.4     255
24.42    278
24.44    307
24.46    294
24.48    286
24.5     257
24.52    256
24.54    271
24.56    260
24.58    223
24.6     245
24.62    266
24.64    244
24.66    243
24.68    237
24.7     242
24.72    346
24.74    348
24.76    305
24.78    264
24.8     307
24.82    289
24.84    270
24.86    256
24.88    270
24.9     287
24.92    340
24.94    322
24.96    256
24.98    207
25.0     226
25.02    213
25.04    234
25.06    259
25.08    294
25.1     335
25.12    339
25.14    352
25.16    329
25.18    283
25.2     309
25.22    234
25.24    215
25.26    237
25.28    214
25.3     222
25.32    183
25.34    188
25.36    242
25.38    281
25.4     324
25.42    232
25.44    197
25.46    270
25.48    302
25.5     331
25.52    333
25.54    260
25.56    292
25.58    319
25.6     305
25.62    194
25.64    139
25.66    147
25.68    214
25.7     237
25.72    265
25.74    196
25.76    278
25.78    333
25.8     320
25.82    308
25.84    255
25.86    223
25.88    239
25.9     225
25.92    222
25.94    222
25.96    240
25.98    240
26.0     246
26.02    256
26.04    221
26.06    251
26.08    258
26.1     289
26.12    316
26.14    311
26.16    333
26.18    358
26.2     357
26.22    265
26.24    216
26.26    230
26.28    197
26.3     216
26.32    234
26.34    230
26.36    253
26.38    273
26.4     307
26.42    293
26.44    315
26.46    300
26.48    284
26.5     334
26.52    391
26.54    414
26.56    384
26.58    367
26.6     391
26.62    340
26.64    256
26.66    222
26.68    191
26.7     290
26.72    327
26.74    367
26.76    321
26.78    296
26.8     213
26.82    231
26.84    253
26.86    323
26.88    315
26.9     326
26.92    272
26.94    234
26.96    204
26.98    193
27.0     166
27.02    263
27.04    296
27.06    331
27.08    354
27.1     340
27.12    375
27.14    382
27.16    413
27.18    404
27.2     380
27.22    344
27.24    312
27.26    269
27.28    239
27.3     219
27.32    274
27.34    311
27.36    386
27.38    392
27.4     351
27.42    353
27.44    335
27.46    321
27.48    288
27.5     231
27.52    209
27.54    168
27.56    198
27.58    239
27.6     233
27.62    274
27.64    310
27.66    340
27.68    323
27.7     288
27.72    250
27.74    233
27.76    297
27.78    337
27.8     281
27.82    242
27.84    196
27.86    199
27.88    221
27.9     221
27.92    262
27.94    284
27.96    323
27.98    293
28.0     235
28.02    210
28.04    196
28.06    250
28.08    288
28.1     315
28.12    320
28.14    267
28.16    294
28.18    298
28.2     272
28.22    303
28.24    277
28.26    317
28.28    366
28.3     371
28.32    332
28.34    296
28.36    328
28.38    326
28.4     342
28.42    387
28.44    305
28.46    288
28.48    249
28.5     214
28.52    213
28.54    273
28.56    360
28.58    434
28.6     473
28.62    432
28.64    307
28.66    242
28.68    211
28.7     192
28.72    237
28.74    318
28.76    405
28.78    405
28.8     369
28.82    302
28.84    231
28.86    215
28.88    185
28.9     221
28.92    245
28.94    260
28.96    315
28.98    294
29.0     303
29.02    260
29.04    253
29.06    248
29.08    239
29.1     316
29.12    266
29.14    273
29.16    287
29.18    269
29.2     262
29.22    245
29.24    277
29.26    249
29.28    260
29.3     285
29.32    299
29.34    362
29.36    401
29.38    410
29.4     419
29.42    465
29.44    445
29.46    388
29.48    314
29.5     259
29.52    254
29.54    260
29.56    241
29.58    254
29.6     262
29.62    314
29.64    327
29.66    331
29.68    325
29.7     356
29.72    349
29.74    371
29.76    363
29.78    394
29.8     335
29.82    319
29.84    296
29.86    276
29.88    348
29.9     376
29.92    401
29.94    376
29.96    370
29.98    417
30.0     366
30.02    384
30.04    405
30.06    432
30.08    499
30.1     540
30.12    517
30.14    440
30.16    430
30.18    370
30.2     300
30.22    320
30.24    384
30.26    459
30.28    517
30.3     544
30.32    455
30.34    425
30.36    363
30.38    287
30.4     281
30.42    299
30.44    396
30.46    445
30.48    413
30.5     358
30.52    300
30.54    359
30.56    389
30.58    414
30.6     363
30.62    245
30.64    211
30.66    178
30.68    127
30.7     201
30.72    277
30.74    425
30.76    467
30.78    383
30.8     264
30.82    109
30.84    121
30.86    178
30.88    207
30.9     394
30.92    447
30.94    480
30.96    446
30.98    310
31.0     276
31.02    330
31.04    348
31.06    426
31.08    434
31.1     447
31.12    396
31.14    317
31.16    263
31.18    186
31.2     208
31.22    283
31.24    304
31.26    391
31.28    419
31.3     428
31.32    408
31.34    408
31.36    344
31.38    286
31.4     325
31.42    316
31.44    281
31.46    265
31.48    281
31.5     357
31.52    399
31.54    477
31.56    410
31.58    437
31.6     486
31.62    403
31.64    372
31.66    329
31.68    293
31.7     291
31.72    244
31.74    275
31.76    285
31.78    364
31.8     376
31.82    358
31.84    363
31.86    305
31.88    270
31.9     222
31.92    232
31.94    325
31.96    352
31.98    396
32.0     395
32.02    368
32.04    321
32.06    337
32.08    344
32.1     363
32.12    406
32.14    444
32.16    431
32.18    430
32.2     385
32.22    338
32.24    325
32.26    362
32.28    398
32.3     405
32.32    403
32.34    431
32.36    442
32.38    414
32.4     439
32.42    492
32.44    546
32.46    561
32.48    590
32.5     542
32.52    450
32.54    419
32.56    353
32.58    337
32.6     387
32.62    449
32.64    535
32.66    555
32.68    587
32.7     547
32.72    450
32.74    447
32.76    448
32.78    468
32.8     489
32.82    539
32.84    565
32.86    560
32.88    586
32.9     550
32.92    475
32.94    537
32.96    561
32.98    523
33.0     575
33.02    566
33.04    557
33.06    578
33.08    562
33.1     504
33.12    424
33.14    440
33.16    403
33.18    441
33.2     596
33.22    696
33.24    769
33.26    810
33.28    772
33.3     829
33.32    860
33.34    1003
33.36    1182
33.38    1422
33.4     1778
33.42    2184
33.44    2664
33.46    3453
33.48    4659
33.5     6484
33.52    8654
33.54    10849
33.56    12419
33.58    12967
33.6     12549
33.62    11188
33.64    9100
33.66    6811
33.68    4702
33.7     3166
33.72    2319
33.74    1881
33.76    1601
33.78    1392
33.8     1274
33.82    1213
33.84    1095
33.86    1019
33.88    942
33.9     856
33.92    863
33.94    812
33.96    797
33.98    791
34.0     764
34.02    722
34.04    626
34.06    604
34.08    641
34.1     687
34.12    685
34.14    630
34.16    633
34.18    635
34.2     667
34.22    622
34.24    609
34.26    611
34.28    686
34.3     772
34.32    764
34.34    769
34.36    793
34.38    745
34.4     684
34.42    583
34.44    550
34.46    452
34.48    449
34.5     519
34.52    536
34.54    570
34.56    614
34.58    558
34.6     556
34.62    565
34.64    587
34.66    557
34.68    608
34.7     627
34.72    548
34.74    516
34.76    520
34.78    513
34.8     558
34.82    636
34.84    713
34.86    773
34.88    847
34.9     860
34.92    856
34.94    980
34.96    1137
34.98    1419
35.0     1858
35.02    2502
35.04    3598
35.06    5365
35.08    7717
35.1     10290
35.12    12305
35.14    13350
35.16    13302
35.18    12147
35.2     10089
35.22    7530
35.24    5154
35.26    3295
35.28    2213
35.3     1770
35.32    1418
35.34    1220
35.36    1281
35.38    1297
35.4     1333
35.42    1370
35.44    1326
35.46    1166
35.48    1006
35.5     967
35.52    789
35.54    743
35.56    792
35.58    825
35.6     843
35.62    859
35.64    820
35.66    773
35.68    727
35.7     764
35.72    684
35.74    692
35.76    744
35.78    823
35.8     824
35.82    834
35.84    855
35.86    788
35.88    799
35.9     761
35.92    671
35.94    650
35.96    666
35.98    688
36.0     753
36.02    861
36.04    940
36.06    914
36.08    989
36.1     943
36.12    864
36.14    909
36.16    951
36.18    982
36.2     1105
36.22    1220
36.24    1364
36.26    1519
36.28    1802
36.3     2046
36.32    2438
36.34    2973
36.36    3837
36.38    5122
36.4     7297
36.42    10846
36.44    15777
36.46    20962
36.48    25114
36.5     27301
36.52    27159
36.54    24630
36.56    20280
36.58    14955
36.6     9809
36.62    6002
36.64    3843
36.66    2723
36.68    2094
36.7     1782
36.72    1580
36.74    1476
36.76    1326
36.78    1244
36.8     1153
36.82    1070
36.84    1019
36.86    1000
36.88    985
36.9     962
36.92    901
36.94    906
36.96    842
36.98    816
37.0     861
37.02    888
37.04    880
37.06    879
37.08    833
37.1     759
37.12    626
37.14    605
37.16    582
37.18    573
37.2     595
37.22    685
37.24    712
37.26    772
37.28    804
37.3     827
37.32    795
37.34    894
37.36    1013
37.38    1098
37.4     1149
37.42    1148
37.44    1011
37.46    857
37.48    689
37.5     540
37.52    456
37.54    503
37.56    629
37.58    732
37.6     824
37.62    844
37.64    741
37.66    662
37.68    561
37.7     505
37.72    526
37.74    575
37.76    668
37.78    706
37.8     763
37.82    755
37.84    638
37.86    566
37.88    510
37.9     465
37.92    481
37.94    528
37.96    599
37.98    705
38.0     763
38.02    796
38.04    692
38.06    623
38.08    571
38.1     480
38.12    482
38.14    546
38.16    545
38.18    626
38.2     650
38.22    616
38.24    486
38.26    459
38.28    410
38.3     398
38.32    473
38.34    579
38.36    541
38.38    639
38.4     622
38.42    483
38.44    337
38.46    369
38.48    358
38.5     420
38.52    499
38.54    561
38.56    553
38.58    633
38.6     569
38.62    452
38.64    436
38.66    539
38.68    553
38.7     640
38.72    682
38.74    656
38.76    590
38.78    557
38.8     470
38.82    429
38.84    476
38.86    515
38.88    523
38.9     572
38.92    608
38.94    557
38.96    508
38.98    458
39.0     471
39.02    499
39.04    551
39.06    584
39.08    659
39.1     651
39.12    638
39.14    511
39.16    402
39.18    292
39.2     285
39.22    334
39.24    408
39.26    496
39.28    607
39.3     598
39.32    658
39.34    676
39.36    628
39.38    599
39.4     611
39.42    599
39.44    518
39.46    460
39.48    375
39.5     292
39.52    389
39.54    483
39.56    521
39.58    659
39.6     744
39.62    730
39.64    681
39.66    606
39.68    504
39.7     451
39.72    454
39.74    530
39.76    559
39.78    622
39.8     611
39.82    605
39.84    558
39.86    567
39.88    554
39.9     568
39.92    539
39.94    612
39.96    571
39.98    545
40.0     525
40.02    568
40.04    604
40.06    720
40.08    737
40.1     786
40.12    780
40.14    783
40.16    790
40.18    791
40.2     751
40.22    777
40.24    790
40.26    778
40.28    742
40.3     799
40.32    754
40.34    749
40.36    830
40.38    851
40.4     861
40.42    921
40.44    939
40.46    853
40.48    801
40.5     796
40.52    742
40.54    793
40.56    898
40.58    978
40.6     1087
40.62    1157
40.64    1133
40.66    984
40.68    928
40.7     943
40.72    939
40.74    996
40.76    1095
40.78    1211
40.8     1273
40.82    1381
40.84    1432
40.86    1443
40.88    1519
40.9     1575
40.92    1523
40.94    1499
40.96    1541
40.98    1588
41.0     1586
41.02    1721
41.04    1849
41.06    1913
41.08    2013
41.1     2109
41.12    2192
41.14    2331
41.16    2578
41.18    2809
41.2     2985
41.22    3234
41.24    3501
41.26    3789
41.28    4206
41.3     4758
41.32    5492
41.34    6459
41.36    7730
41.38    9270
41.4     11354
41.42    14424
41.44    19135
41.46    27016
41.48    39588
41.5     56872
41.52    75697
41.54    91262
41.56    99895
41.58    99682
41.6     90781
41.62    75055
41.64    55588
41.66    36687
41.68    22214
41.7     13660
41.72    9342
41.74    7014
41.76    5539
41.78    4464
41.8     3696
41.82    3316
41.84    3081
41.86    2869
41.88    2690
41.9     2523
41.92    2351
41.94    2155
41.96    1974
41.98    1856
42.0     1693
42.02    1629
42.04    1548
42.06    1492
42.08    1402
42.1     1338
42.12    1310
42.14    1255
42.16    1270
42.18    1258
42.2     1257
42.22    1243
42.24    1188
42.26    1129
42.28    1056
42.3     1001
42.32    953
42.34    912
42.36    892
42.38    851
42.4     880
42.42    852
42.44    899
42.46    943
42.48    1021
42.5     1089
42.52    1125
42.54    1123
42.56    996
42.58    911
42.6     824
42.62    768
42.64    767
42.66    789
42.68    873
42.7     942
42.72    945
42.74    925
42.76    872
42.78    875
42.8     831
42.82    820
42.84    845
42.86    848
42.88    918
42.9     890
42.92    864
42.94    885
42.96    909
42.98    871
43.0     840
43.02    820
43.04    793
43.06    787
43.08    780
43.1     714
43.12    675
43.14    665
43.16    670
43.18    671
43.2     736
43.22    695
43.24    713
43.26    797
43.28    744
43.3     701
43.32    623
43.34    583
43.36    514
43.38    501
43.4     518
43.42    523
43.44    638
43.46    713
43.48    749
43.5     791
43.52    813
43.54    865
43.56    787
43.58    772
43.6     786
43.62    770
43.64    734
43.66    679
43.68    673
43.7     621
43.72    596
43.74    595
43.76    558
43.78    603
43.8     713
43.82    743
43.84    829
43.86    856
43.88    870
43.9     791
43.92    658
43.94    624
43.96    605
43.98    601
44.0     627
44.02    646
44.04    669
44.06    613
44.08    594
44.1     545
44.12    520
44.14    608
44.16    672
44.18    740
44.2     750
44.22    781
44.24    704
44.26    686
44.28    641
44.3     586
44.32    604
44.34    623
44.36    634
44.38    649
44.4     647
44.42    693
44.44    707
44.46    732
44.48    750
44.5     735
44.52    756
44.54    735
44.56    702
44.58    701
44.6     698
44.62    749
44.64    737
44.66    722
44.68    708
44.7     620
44.72    609
44.74    592
44.76    612
44.78    673
44.8     721
44.82    814
44.84    789
44.86    773
44.88    730
44.9     674
44.92    654
44.94    697
44.96    941
44.98    1293
45.0     1665
45.02    2087
45.04    2368
45.06    2534
45.08    2499
45.1     2257
45.12    1978
45.14    1612
45.16    1342
45.18    1113
45.2     952
45.22    956
45.24    875
45.26    849
45.28    773
45.3     697
45.32    664
45.34    582
45.36    572
45.38    580
45.4     630
45.42    737
45.44    731
45.46    785
45.48    738
45.5     723
45.52    690
45.54    677
45.56    638
45.58    659
45.6     681
45.62    694
45.64    710
45.66    693
45.68    722
45.7     765
45.72    754
45.74    723
45.76    664
45.78    665
45.8     620
45.82    574
45.84    571
45.86    542
45.88    591
45.9     554
45.92    552
45.94    567
45.96    577
45.98    596
46.0     554
46.02    528
46.04    514
46.06    490
46.08    483
46.1     473
46.12    551
46.14    587
46.16    618
46.18    676
46.2     683
46.22    704
46.24    689
46.26    710
46.28    639
46.3     572
46.32    566
46.34    486
46.36    442
46.38    422
46.4     492
46.42    580
46.44    562
46.46    569
46.48    542
46.5     562
46.52    546
46.54    490
46.56    510
46.58    580
46.6     681
46.62    709
46.64    653
46.66    628
46.68    658
46.7     576
46.72    506
46.74    490
46.76    549
46.78    605
46.8     635
46.82    685
46.84    727
46.86    746
46.88    771
46.9     679
46.92    640
46.94    585
46.96    513
46.98    460
47.0     411
47.02    455
47.04    522
47.06    577
47.08    632
47.1     616
47.12    629
47.14    624
47.16    551
47.18    493
47.2     445
47.22    482
47.24    507
47.26    527
47.28    601
47.3     655
47.32    715
47.34    731
47.36    687
47.38    667
47.4     632
47.42    564
47.44    586
47.46    608
47.48    643
47.5     676
47.52    679
47.54    662
47.56    641
47.58    618
47.6     565
47.62    502
47.64    524
47.66    536
47.68    599
47.7     636
47.72    699
47.74    765
47.76    785
47.78    785
47.8     701
47.82    649
47.84    579
47.86    554
47.88    501
47.9     434
47.92    461
47.94    508
47.96    509
47.98    611
48.0     687
48.02    788
48.04    796
48.06    769
48.08    739
48.1     695
48.12    590
48.14    503
48.16    407
48.18    451
48.2     455
48.22    449
48.24    473
48.26    542
48.28    673
48.3     748
48.32    746
48.34    786
48.36    717
48.38    654
48.4     555
48.42    446
48.44    400
48.46    369
48.48    379
48.5     497
48.52    501
48.54    579
48.56    573
48.58    628
48.6     622
48.62    582
48.64    507
48.66    462
48.68    429
48.7     464
48.72    446
48.74    547
48.76    631
48.78    703
48.8     689
48.82    714
48.84    674
48.86    633
48.88    567
48.9     552
48.92    547
48.94    579
48.96    540
48.98    518
49.0     514
49.02    567
49.04    606
49.06    589
49.08    618
49.1     626
49.12    621
49.14    647
49.16    564
49.18    550
49.2     514
49.22    542
49.24    523
49.26    415
49.28    450
49.3     432
49.32    436
49.34    430
49.36    392
49.38    474
49.4     546
49.42    672
49.44    655
49.46    627
49.48    733
49.5     652
49.52    526
49.54    430
49.56    386
49.58    413
49.6     420
49.62    410
49.64    485
49.66    571
49.68    687
49.7     635
49.72    627
49.74    661
49.76    672
49.78    627
49.8     574
49.82    496
49.84    549
49.86    520
49.88    458
49.9     427
49.92    512
49.94    520
49.96    555
49.98    563
50.0     571
50.02    578
50.04    578
50.06    531
50.08    506
50.1     563
50.12    592
50.14    529
50.16    509
50.18    441
50.2     430
50.22    471
50.24    520
50.26    535
50.28    592
50.3     624
50.32    663
50.34    658
50.36    552
50.38    482
50.4     540
50.42    607
50.44    676
50.46    690
50.48    693
50.5     740
50.52    765
50.54    732
50.56    586
50.58    507
50.6     485
50.62    451
50.64    455
50.66    449
50.68    457
50.7     579
50.72    615
50.74    670
50.76    684
50.78    669
50.8     677
50.82    610
50.84    579
50.86    492
50.88    488
50.9     499
50.92    459
50.94    481
50.96    491
50.98    493
51.0     489
51.02    414
51.04    462
51.06    416
51.08    431
51.1     487
51.12    548
51.14    539
51.16    511
51.18    492
51.2     553
51.22    606
51.24    672
51.26    605
51.28    664
51.3     798
51.32    806
51.34    691
51.36    645
51.38    592
51.4     670
51.42    604
51.44    509
51.46    449
51.48    562
51.5     568
51.52    593
51.54    578
51.56    664
51.58    701
51.6     741
51.62    619
51.64    583
51.66    510
51.68    567
51.7     450
51.72    472
51.74    481
51.76    514
51.78    486
51.8     517
51.82    492
51.84    587
51.86    622
51.88    708
51.9     725
51.92    783
51.94    774
51.96    742
51.98    698
52.0     666
52.02    641
52.04    612
52.06    570
52.08    542
52.1     568
52.12    569
52.14    581
52.16    628
52.18    691
52.2     719
52.22    744
52.24    711
52.26    675
52.28    702
52.3     746
52.32    725
52.34    712
52.36    713
52.38    750
52.4     734
52.42    673
52.44    601
52.46    567
52.48    602
52.5     636
52.52    623
52.54    656
52.56    725
52.58    782
52.6     787
52.62    734
52.64    700
52.66    724
52.68    678
52.7     587
52.72    518
52.74    440
52.76    446
52.78    459
52.8     469
52.82    516
52.84    699
52.86    829
52.88    897
52.9     904
52.92    887
52.94    830
52.96    793
52.98    671
53.0     601
53.02    630
53.04    720
53.06    732
53.08    822
53.1     896
53.12    967
53.14    1035
53.16    1029
53.18    1020
53.2     1065
53.22    1113
53.24    1141
53.26    1216
53.28    1363
53.3     1520
53.32    1728
53.34    2032
53.36    2510
53.38    3327
53.4     4392
53.42    5697
53.44    7051
53.46    8107
53.48    8615
53.5     8546
53.52    7866
53.54    6760
53.56    5402
53.58    4169
53.6     3154
53.62    2550
53.64    2109
53.66    1780
53.68    1491
53.7     1309
53.72    1163
53.74    1105
53.76    1008
53.78    1023
53.8     1027
53.82    1104
53.84    1069
53.86    1060
53.88    942
53.9     850
53.92    755
53.94    652
53.96    583
53.98    518
54.0     495
54.02    575
54.04    622
54.06    696
54.08    736
54.1     755
54.12    776
54.14    804
54.16    775
54.18    695
54.2     660
54.22    578
54.24    520
54.26    511
54.28    502
54.3     567
54.32    646
54.34    726
54.36    775
54.38    792
54.4     775
54.42    720
54.44    687
54.46    661
54.48    563
54.5     489
54.52    413
54.54    421
54.56    491
54.58    478
54.6     556
54.62    658
54.64    716
54.66    741
54.68    644
54.7     544
54.72    512
54.74    520
54.76    516
54.78    508
54.8     454
54.82    503
54.84    511
54.86    535
54.88    502
54.9     469
54.92    526
54.94    552
54.96    594
54.98    622
55.0     571
55.02    652
55.04    628
55.06    676
55.08    644
55.1     573
55.12    574
55.14    513
55.16    516
55.18    531
55.2     542
55.22    549
55.24    547
55.26    644
55.28    631
55.3     555
55.32    585
55.34    498
55.36    443
55.38    367
55.4     360
55.42    372
55.44    381
55.46    421
55.48    504
55.5     526
55.52    662
55.54    679
55.56    740
55.58    797
55.6     945
55.62    924
55.64    859
55.66    765
55.68    705
55.7     561
55.72    494
55.74    353
55.76    359
55.78    384
55.8     523
55.82    567
55.84    640
55.86    695
55.88    725
55.9     769
55.92    761
55.94    692
55.96    689
55.98    658
56.0     658
56.02    609
56.04    590
56.06    584
56.08    583
56.1     568
56.12    531
56.14    561
56.16    591
56.18    624
56.2     649
56.22    727
56.24    778
56.26    822
56.28    846
56.3     796
56.32    775
56.34    774
56.36    772
56.38    770
56.4     741
56.42    764
56.44    691
56.46    649
56.48    554
56.5     508
56.52    503
56.54    515
56.56    591
56.58    679
56.6     763
56.62    860
56.64    884
56.66    923
56.68    851
56.7     835
56.72    729
56.74    647
56.76    585
56.78    524
56.8     558
56.82    520
56.84    620
56.86    713
56.88    739
56.9     799
56.92    793
56.94    782
56.96    750
56.98    712
57.0     673
57.02    612
57.04    652
57.06    637
57.08    628
57.1     662
57.12    709
57.14    708
57.16    739
57.18    759
57.2     711
57.22    691
57.24    637
57.26    578
57.28    584
57.3     592
57.32    665
57.34    711
57.36    796
57.38    830
57.4     875
57.42    914
57.44    875
57.46    890
57.48    913
57.5     879
57.52    888
57.54    863
57.56    856
57.58    893
57.6     960
57.62    977
57.64    968
57.66    1020
57.68    968
57.7     988
57.72    993
57.74    961
57.76    982
57.78    1067
57.8     1054
57.82    1007
57.84    988
57.86    953
57.88    989
57.9     1120
57.92    1246
57.94    1404
57.96    1586
57.98    1884
58.0     2064
58.02    2228
58.04    2369
58.06    2493
58.08    2760
58.1     2991
58.12    3341
58.14    3864
58.16    4756
58.18    6294
58.2     8272
58.22    10977
58.24    14026
58.26    16926
58.28    19059
58.3     19938
58.32    19416
58.34    17571
58.36    14957
58.38    11912
58.4     9021
58.42    6771
58.44    5176
58.46    4059
58.48    3277
58.5     2785
58.52    2355
58.54    2084
58.56    1893
58.58    1691
58.6     1607
58.62    1504
58.64    1408
58.66    1253
58.68    1168
58.7     1069
58.72    1010
58.74    1008
58.76    967
58.78    904
58.8     885
58.82    916
58.84    905
58.86    931
58.88    931
58.9     895
58.92    916
58.94    926
58.96    951
58.98    852
59.0     810
59.02    701
59.04    672
59.06    649
59.08    624
59.1     557
59.12    528
59.14    570
59.16    638
59.18    667
59.2     709
59.22    707
59.24    792
59.26    772
59.28    772
59.3     671
59.32    598
59.34    572
59.36    533
59.38    528
59.4     567
59.42    643
59.44    691
59.46    733
59.48    775
59.5     747
59.52    754
59.54    707
59.56    663
59.58    647
59.6     682
59.62    637
59.64    663
59.66    677
59.68    643
59.7     627
59.72    625
59.74    617
59.76    619
59.78    655
59.8     630
59.82    572
59.84    620
59.86    611
59.88    558
59.9     606
59.92    637
59.94    666
59.96    692
59.98    729
60.0     677
60.02    691
60.04    667
60.06    616
60.08    525
60.1     523
60.12    478
60.14    464
60.16    467
60.18    425
60.2     443
60.22    552
60.24    641
60.26    697
60.28    747
60.3     786
60.32    864
60.34    872
60.36    760
60.38    653
60.4     548
60.42    544
60.44    550
60.46    555
60.48    501
60.5     487
60.52    608
60.54    637
60.56    660
60.58    703
60.6     640
60.62    643
60.64    640
60.66    639
60.68    564
60.7     567
60.72    611
60.74    657
60.76    686
60.78    666
60.8     630
60.82    607
60.84    598
60.86    586
60.88    543
60.9     536
60.92    530
60.94    589
60.96    613
60.98    668
61.0     741
61.02    805
61.04    794
61.06    762
61.08    742
61.1     735
61.12    699
61.14    671
61.16    691
61.18    693
61.2     712
61.22    728
61.24    713
61.26    692
61.28    648
61.3     647
61.32    615
61.34    594
61.36    620
61.38    586
61.4     625
61.42    654
61.44    718
61.46    772
61.48    790
61.5     857
61.52    850
61.54    837
61.56    804
61.58    724
61.6     656
61.62    555
61.64    525
61.66    541
61.68    512
61.7     544
61.72    594
61.74    712
61.76    779
61.78    801
61.8     902
61.82    949
61.84    1077
61.86    1182
61.88    1264
61.9     1357
61.92    1495
61.94    1692
61.96    1810
61.98    2031
62.0     2497
62.02    3115
62.04    4226
62.06    5914
62.08    8289
62.1     11234
62.12    14645
62.14    17956
62.16    20495
62.18    21793
62.2     21592
62.22    19881
62.24    17103
62.26    13836
62.28    10602
62.3     7803
62.32    5725
62.34    4360
62.36    3440
62.38    2887
62.4     2488
62.42    2182
62.44    1905
62.46    1691
62.48    1549
62.5     1392
62.52    1259
62.54    1128
62.56    1003
62.58    958
62.6     903
62.62    841
62.64    787
62.66    683
62.68    706
62.7     722
62.72    773
62.74    745
62.76    820
62.78    797
62.8     846
62.82    855
62.84    892
62.86    834
62.88    843
62.9     849
62.92    836
62.94    752
62.96    749
62.98    672
63.0     664
63.02    646
63.04    636
63.06    598
63.08    687
63.1     722
63.12    745
63.14    697
63.16    683
63.18    675
63.2     631
63.22    570
63.24    509
63.26    521
63.28    638
63.3     659
63.32    703
63.34    723
63.36    750
63.38    789
63.4     762
63.42    718
63.44    674
63.46    637
63.48    610
63.5     513
63.52    460
63.54    433
63.56    447
63.58    490
63.6     513
63.62    569
63.64    621
63.66    659
63.68    717
63.7     734
63.72    764
63.74    768
63.76    789
63.78    765
63.8     747
63.82    729
63.84    661
63.86    613
63.88    552
63.9     504
63.92    421
63.94    394
63.96    379
63.98    359
64.0     367
64.02    432
64.04    495
64.06    646
64.08    769
64.1     880
64.12    951
64.14    1003
64.16    1005
64.18    944
64.2     816
64.22    750
64.24    644
64.26    627
64.28    626
64.3     588
64.32    569
64.34    552
64.36    579
64.38    622
64.4     652
64.42    723
64.44    750
64.46    803
64.48    868
64.5     962
64.52    985
64.54    1029
64.56    1072
64.58    1152
64.6     1214
64.62    1245
64.64    1252
64.66    1284
64.68    1389
64.7     1639
64.72    1873
64.74    2305
64.76    2913
64.78    3673
64.8     4411
64.82    5093
64.84    5562
64.86    5721
64.88    5534
64.9     5102
64.92    4399
64.94    3656
64.96    2949
64.98    2412
65.0     1925
65.02    1660
65.04    1398
65.06    1178
65.08    965
65.1     880
65.12    806
65.14    735
65.16    694
65.18    744
65.2     682
65.22    731
65.24    685
65.26    680
65.28    613
65.3     614
65.32    607
65.34    589
65.36    509
65.38    491
65.4     431
65.42    459
65.44    468
65.46    529
65.48    486
65.5     516
65.52    574
65.54    635
65.56    670
65.58    696
65.6     699
65.62    672
65.64    676
65.66    639
65.68    611
65.7     634
65.72    638
65.74    619
65.76    648
65.78    627
65.8     613
65.82    540
65.84    516
65.86    463
65.88    501
65.9     540
65.92    566
65.94    590
65.96    601
65.98    612
66.0     563
66.02    559
66.04    597
66.06    603
66.08    585
66.1     625
66.12    635
66.14    638
66.16    588
66.18    600
66.2     559
66.22    606
66.24    657
66.26    667
66.28    631
66.3     656
66.32    623
66.34    561
66.36    563
66.38    568
66.4     557
66.42    528
66.44    508
66.46    490
66.48    518
66.5     541
66.52    577
66.54    596
66.56    641
66.58    647
66.6     673
66.62    652
66.64    631
66.66    619
66.68    642
66.7     582
66.72    596
66.74    516
66.76    453
66.78    409
66.8     396
66.82    431
66.84    449
66.86    496
66.88    550
66.9     554
66.92    607
66.94    597
66.96    666
66.98    718
67.0     742
67.02    752
67.04    741
67.06    682
67.08    602
67.1     542
67.12    487
67.14    415
67.16    372
67.18    328
67.2     310
67.22    361
67.24    476
67.26    576
67.28    619
67.3     701
67.32    789
67.34    771
67.36    739
67.38    681
67.4     596
67.42    567
67.44    551
67.46    495
67.48    467
67.5     477
67.52    533
67.54    531
67.56    549
67.58    519
67.6     512
67.62    535
67.64    544
67.66    468
67.68    509
67.7     524
67.72    581
67.74    578
67.76    605
67.78    609
67.8     611
67.82    570
67.84    553
67.86    522
67.88    496
67.9     531
67.92    590
67.94    597
67.96    590
67.98    584
68.0     520
68.02    487
68.04    470
68.06    503
68.08    504
68.1     556
68.12    612
68.14    617
68.16    582
68.18    546
68.2     534
68.22    564
68.24    545
68.26    564
68.28    580
68.3     572
68.32    604
68.34    553
68.36    559
68.38    574
68.4     578
68.42    578
68.44    560
68.46    598
68.48    605
68.5     610
68.52    653
68.54    661
68.56    690
68.58    680
68.6     682
68.62    721
68.64    750
68.66    813
68.68    800
68.7     784
68.72    801
68.74    809
68.76    811
68.78    837
68.8     920
68.82    1033
68.84    1225
68.86    1505
68.88    1871
68.9     2432
68.92    3159
68.94    3887
68.96    4628
68.98    5129
69.0     5471
69.02    5510
69.04    5241
69.06    4683
69.08    4017
69.1     3357
69.12    2751
69.14    2194
69.16    1810
69.18    1435
69.2     1289
69.22    1110
69.24    964
69.26    886
69.28    831
69.3     782
69.32    750
69.34    740
69.36    745
69.38    735
69.4     697
69.42    712
69.44    729
69.46    725
69.48    712
69.5     728
69.52    728
69.54    730
69.56    726
69.58    744
69.6     687
69.62    711
69.64    670
69.66    660
69.68    620
69.7     660
69.72    640
69.74    601
69.76    591
69.78    585
69.8     579
69.82    553
69.84    529
69.86    507
69.88    478
69.9     477
69.92    505
69.94    581
69.96    634
69.98    720
70.0     746
70.02    714
70.04    686
70.06    669
70.08    652
70.1     622
70.12    621
70.14    650
70.16    663
70.18    624
70.2     605
70.22    586
70.24    569
70.26    597
70.28    605
70.3     648
70.32    682
70.34    744
70.36    790
70.38    847
70.4     947
70.42    985
70.44    1032
70.46    1117
70.48    1268
70.5     1469
70.52    1661
70.54    1839
70.56    2059
70.58    2298
70.6     2358
70.62    2415
70.64    2380
70.66    2216
70.68    1984
70.7     1738
70.72    1503
70.74    1289
70.76    1177
70.78    1023
70.8     979
70.82    973
70.84    948
70.86    910
70.88    848
70.9     827
70.92    833
70.94    825
70.96    739
70.98    609
71.0     566
71.02    500
71.04    519
71.06    567
71.08    600
71.1     628
71.12    645
71.14    667
71.16    600
71.18    600
71.2     622
71.22    652
71.24    662
71.26    660
71.28    605
71.3     557
71.32    522
71.34    521
71.36    553
71.38    668
71.4     703
71.42    698
71.44    655
71.46    602
71.48    566
71.5     544
71.52    522
71.54    508
71.56    544
71.58    579
71.6     508
71.62    500
71.64    517
71.66    570
71.68    616
71.7     646
71.72    661
71.74    690
71.76    737
71.78    758
71.8     798
71.82    805
71.84    834
71.86    775
71.88    690
71.9     688
71.92    649
71.94    586
71.96    577
71.98    575
72.0     544
72.02    522
72.04    514
72.06    476
72.08    541
72.1     626
72.12    630
72.14    645
72.16    727
72.18    792
72.2     827
72.22    923
72.24    934
72.26    1045
72.28    1114
72.3     1192
72.32    1215
72.34    1299
72.36    1359
72.38    1429
72.4     1583
72.42    1811
72.44    2187
72.46    2765
72.48    3460
72.5     4303
72.52    5164
72.54    5883
72.56    6305
72.58    6386
72.6     6160
72.62    5614
72.64    4904
72.66    4044
72.68    3276
72.7     2652
72.72    2223
72.74    1890
72.76    1673
72.78    1478
72.8     1310
72.82    1180
72.84    1032
72.86    909
72.88    878
72.9     845
72.92    865
72.94    884
72.96    898
72.98    941
73.0     910
73.02    865
73.04    798
73.06    777
73.08    724
73.1     644
73.12    643
73.14    593
73.16    603
73.18    642
73.2     628
73.22    631
73.24    662
73.26    632
73.28    629
73.3     693
73.32    700
73.34    732
73.36    797
73.38    908
73.4     1026
73.42    1181
73.44    1290
73.46    1366
73.48    1495
73.5     1566
73.52    1480
73.54    1469
73.56    1332
73.58    1223
73.6     1012
73.62    876
73.64    738
73.66    688
73.68    698
73.7     675
73.72    677
73.74    793
73.76    813
73.78    863
73.8     853
73.82    910
73.84    878
73.86    846
73.88    743
73.9     618
73.92    540
73.94    521
73.96    451
73.98    432
74.0     488
74.02    579
74.04    576
74.06    573
74.08    631
74.1     752
74.12    822
74.14    916
74.16    1004
74.18    1160
74.2     1394
74.22    1653
74.24    1882
74.26    2173
74.28    2578
74.3     2800
74.32    2857
74.34    2864
74.36    2741
74.38    2526
74.4     2292
74.42    2078
74.44    1818
74.46    1644
74.48    1531
74.5     1290
74.52    1142
74.54    1072
74.56    977
74.58    904
74.6     886
74.62    861
74.64    840
74.66    856
74.68    895
74.7     896
74.72    1087
74.74    1284
74.76    1473
74.78    1723
74.8     2035
74.82    2302
74.84    2556
74.86    2745
74.88    2808
74.9     2695
74.92    2539
74.94    2266
74.96    2008
74.98    1843
75.0     1702
75.02    1491
75.04    1379
75.06    1297
75.08    1193
75.1     1069
75.12    1006
75.14    984
75.16    968
75.18    947
75.2     871
75.22    775
75.24    754
75.26    720
75.28    687
75.3     621
75.32    609
75.34    567
75.36    557
75.38    556
75.4     575
75.42    612
75.44    677
75.46    675
75.48    631
75.5     577
75.52    627
75.54    622
75.56    678
75.58    714
75.6     733
75.62    723
75.64    690
75.66    626
75.68    616
75.7     638
75.72    705
75.74    681
75.76    747
75.78    686
75.8     683
75.82    620
75.84    567
75.86    564
75.88    541
75.9     550
75.92    574
75.94    533
75.96    621
75.98    484
76.0     554
76.02    498
76.04    514
76.06    501
76.08    538
76.1     555
76.12    543
76.14    518
76.16    572
76.18    470
76.2     565
76.22    520
76.24    570
76.26    602
76.28    711
76.3     683
76.32    656
76.34    638
76.36    606
76.38    530
76.4     561
76.42    451
76.44    427
76.46    381
76.48    442
76.5     402
76.52    402
76.54    398
76.56    423
76.58    433
76.6     488
76.62    468
76.64    512
76.66    537
76.68    627
76.7     590
76.72    586
76.74    633
76.76    691
76.78    677
76.8     693
76.82    676
76.84    661
76.86    647
76.88    655
76.9     650
76.92    639
76.94    720
76.96    731
76.98    693
77.0     693
77.02    683
77.04    659
77.06    643
77.08    583
77.1     555
77.12    530
77.14    588
77.16    593
77.18    632
77.2     738
77.22    823
77.24    892
77.26    908
77.28    918
77.3     1022
77.32    1133
77.34    1238
77.36    1298
77.38    1384
77.4     1516
77.42    1684
77.44    1952
77.46    2339
77.48    2919
77.5     3660
77.52    4413
77.54    5180
77.56    5915
77.58    6510
77.6     6846
77.62    6911
77.64    6724
77.66    6200
77.68    5487
77.7     4674
77.72    3842
77.74    3100
77.76    2539
77.78    2145
77.8     1852
77.82    1665
77.84    1584
77.86    1374
77.88    1281
77.9     1189
77.92    1076
77.94    934
77.96    830
77.98    791
78.0     766
78.02    694
78.04    649
78.06    548
78.08    574
78.1     579
78.12    543
78.14    536
78.16    513
78.18    544
78.2     589
78.22    580
78.24    571
78.26    575
78.28    582
78.3     602
78.32    590
78.34    592
78.36    609
78.38    611
78.4     592
78.42    562
78.44    540
78.46    508
78.48    467
78.5     478
78.52    456
78.54    491
78.56    507
78.58    486
78.6     431
78.62    403
78.64    379
78.66    337
78.68    366
78.7     461
78.72    530
78.74    596
78.76    644
78.78    657
78.8     600
78.82    603
78.84    575
78.86    510
78.88    519
78.9     595
78.92    550
78.94    546
78.96    530
78.98    463
79.0     423
79.02    464
79.04    482
79.06    432
79.08    510
79.1     523
79.12    468
79.14    484
79.16    496
79.18    515
79.2     529
79.22    619
79.24    628
79.26    588
79.28    631
79.3     658
79.32    677
79.34    714
79.36    726
79.38    723
79.4     676
79.42    638
79.44    538
79.46    447
79.48    415
79.5     472
79.52    417
79.54    365
79.56    356
79.58    355
79.6     368
79.62    385
79.64    449
79.66    501
79.68    590
79.7     582
79.72    524
79.74    505
79.76    531
79.78    580
79.8     633
79.82    654
79.84    726
79.86    757
79.88    771
79.9     749
79.92    750
79.94    765
79.96    765
79.98    826
80.0     783
80.02    801
80.04    791
80.06    804
80.08    801
80.1     813
80.12    728
80.14    626
80.16    586
80.18    591
80.2     532
80.22    575
80.24    576
80.26    642
80.28    691
80.3     689
80.32    639
80.34    607
80.36    689
80.38    715
80.4     650
80.42    567
80.44    547
80.46    473
80.48    389
80.5     308
80.52    253
80.54    286
80.56    329
80.58    324
80.6     322
80.62    340
80.64    447
80.66    459
80.68    467
80.7     523
80.72    575
80.74    618
80.76    634
80.78    568
80.8     579
80.82    590
80.84    584
80.86    493
80.88    412
80.9     383
80.92    420
80.94    421
80.96    400
80.98    402
81.0     425
81.02    481
81.04    525
81.06    449
81.08    401
81.1     393
81.12    417
81.14    406
81.16    395
81.18    398
81.2     417
81.22    474
81.24    525
81.26    524
81.28    509
81.3     517
81.32    542
81.34    554
81.36    563
81.38    471
81.4     457
81.42    455
81.44    414
81.46    388
81.48    403
81.5     441
81.52    494
81.54    562
81.56    591
81.58    553
81.6     532
81.62    484
81.64    442
81.66    425
81.68    458
81.7     468
81.72    455
81.74    533
81.76    541
81.78    559
81.8     506
81.82    444
81.84    513
81.86    501
81.88    480
81.9     464
81.92    434
81.94    450
81.96    476
81.98    513
82.0     444
82.02    446
82.04    492
82.06    507
82.08    510
82.1     504
82.12    496
82.14    526
82.16    548
82.18    589
82.2     509
82.22    526
82.24    527
82.26    541
82.28    507
82.3     492
82.32    513
82.34    551
82.36    539
82.38    560
82.4     470
82.42    480
82.44    479
82.46    496
82.48    475
82.5     549
82.52    596
82.54    663
82.56    644
82.58    570
82.6     441
82.62    429
82.64    392
82.66    342
82.68    333
82.7     324
82.72    290
82.74    301
82.76    240
82.78    150
82.8     148
82.82    295
82.84    377
82.86    455
82.88    524
82.9     531
82.92    529
82.94    507
82.96    476
82.98    471
83.0     571
83.02    644
83.04    657
83.06    672
83.08    570
83.1     526
83.12    460
83.14    418
83.16    361
83.18    372
83.2     375
83.22    354
83.24    354
83.26    372
83.28    303
83.3     319
83.32    375
83.34    468
83.36    497
83.38    529
83.4     513
83.42    468
83.44    370
83.46    346
83.48    285
83.5     276
83.52    332
83.54    440
83.56    479
83.58    485
83.6     429
83.62    400
83.64    427
83.66    471
83.68    502
83.7     561
83.72    535
83.74    566
83.76    528
83.78    426
83.8     306
83.82    312
83.84    332
83.86    381
83.88    418
83.9     438
83.92    415
83.94    456
83.96    463
83.98    444
84.0     412
84.02    404
84.04    410
84.06    444
84.08    473
84.1     492
84.12    520
84.14    541
84.16    601
84.18    644
84.2     604
84.22    610
84.24    558
84.26    518
84.28    533
84.3     534
84.32    547
84.34    507
84.36    505
84.38    467
84.4     437
84.42    408
84.44    374
84.46    373
84.48    392
84.5     446
84.52    506
84.54    534
84.56    599
84.58    581
84.6     584
84.62    536
84.64    583
84.66    591
84.68    617
84.7     651
84.72    701
84.74    709
84.76    708
84.78    584
84.8     524
84.82    426
84.84    456
84.86    467
84.88    482
84.9     455
84.92    511
84.94    453
84.96    448
84.98    437
85.0     445
85.02    390
85.04    445
85.06    489
85.08    535
85.1     534
85.12    590
85.14    584
85.16    652
85.18    627
85.2     609
85.22    571
85.24    580
85.26    585
85.28    631
85.3     614
85.32    562
85.34    618
85.36    583
85.38    518
85.4     496
85.42    408
85.44    449
85.46    431
85.48    411
85.5     403
85.52    418
85.54    502
85.56    509
85.58    545
85.6     476
85.62    410
85.64    477
85.66    478
85.68    443
85.7     472
85.72    475
85.74    507
85.76    542
85.78    542
85.8     474
85.82    422
85.84    396
85.86    436
85.88    462
85.9     450
85.92    401
85.94    394
85.96    408
85.98    404
86.0     401
86.02    433
86.04    418
86.06    538
86.08    623
86.1     603
86.12    549
86.14    491
86.16    471
86.18    499
86.2     567
86.22    614
86.24    607
86.26    724
86.28    759
86.3     786
86.32    783
86.34    798
86.36    838
86.38    1016
86.4     1176
86.42    1329
86.44    1404
86.46    1474
86.48    1478
86.5     1457
86.52    1382
86.54    1252
86.56    1067
86.58    1032
86.6     976
86.62    949
86.64    860
86.66    703
86.68    596
86.7     577
86.72    605
86.74    560
86.76    574
86.78    591
86.8     595
86.82    627
86.84    614
86.86    486
86.88    399
86.9     414
86.92    494
86.94    591
86.96    708
86.98    656
87.0     614
87.02    609
87.04    556
87.06    552
87.08    454
87.1     406
87.12    408
87.14    502
87.16    563
87.18    511
87.2     406
87.22    330
87.24    305
87.26    352
87.28    307
87.3     285
87.32    269
87.34    315
87.36    415
87.38    434
87.4     456
87.42    459
87.44    507
87.46    564
87.48    618
87.5     640
87.52    576
87.54    539
87.56    549
87.58    489
87.6     524
87.62    516
87.64    519
87.66    553
87.68    540
87.7     506
87.72    504
87.74    482
87.76    435
87.78    405
87.8     497
87.82    566
87.84    608
87.86    630
87.88    536
87.9     443
87.92    451
87.94    359
87.96    369
87.98    381
88.0     390
88.02    453
88.04    478
88.06    490
88.08    408
88.1     386
88.12    393
88.14    383
88.16    490
88.18    503
88.2     451
88.22    490
88.24    472
88.26    495
88.28    445
88.3     438
88.32    437
88.34    434
88.36    457
88.38    468
88.4     456
88.42    410
88.44    349
88.46    362
88.48    398
88.5     439
88.52    449
88.54    457
88.56    510
88.58    585
88.6     545
88.62    469
88.64    409
88.66    405
88.68    397
88.7     415
88.72    408
88.74    440
88.76    464
88.78    475
88.8     483
88.82    481
88.84    513
88.86    433
88.88    428
88.9     484
88.92    507
88.94    500
88.96    490
88.98    497
89.0     540
89.02    488
89.04    495
89.06    428
89.08    428
89.1     430
89.12    397
89.14    384
89.16    390
89.18    395
89.2     397
89.22    359
89.24    378
89.26    378
89.28    328
89.3     333
89.32    340
89.34    341
89.36    360
89.38    426
89.4     437
89.42    434
89.44    467
89.46    402
89.48    378
89.5     393
89.52    441
89.54    455
89.56    480
89.58    499
89.6     467
89.62    463
89.64    504
89.66    492
89.68    531
89.7     531
89.72    552
89.74    601
89.76    592
89.78    521
89.8     509
89.82    536
89.84    571
89.86    624
89.88    627
89.9     606
89.92    618
89.94    578
89.96    575
89.98    570
90.0     562
