?
5.0      563
5.02     563
5.04     729
5.06     624
5.08     620
5.1      576
5.12     621
5.14     599
5.16     640
5.18     675
5.2      679
5.22     724
5.24     711
5.26     719
5.28     694
5.3      668
5.32     632
5.34     625
5.36     662
5.38     666
5.4      699
5.42     713
5.44     734
5.46     741
5.48     728
5.5      743
5.52     716
5.54     730
5.56     760
5.58     751
5.6      741
5.62     700
5.64     697
5.66     680
5.68     694
5.7      702
5.72     700
5.74     748
5.76     785
5.78     818
5.8      790
5.82     774
5.84     801
5.86     762
5.88     738
5.9      708
5.92     725
5.94     728
5.96     747
5.98     726
6.0      699
6.02     736
6.04     748
6.06     723
6.08     764
6.1      756
6.12     798
6.14     786
6.16     825
6.18     793
6.2      777
6.22     778
6.24     762
6.26     743
6.28     757
6.3      735
6.32     739
6.34     721
6.36     754
6.38     751
6.4      700
6.42     774
6.44     799
6.46     826
6.48     782
6.5      824
6.52     774
6.54     780
6.56     751
6.58     740
6.6      707
6.62     798
6.64     797
6.66     814
6.68     765
6.7      803
6.72     754
6.74     764
6.76     732
6.78     742
6.8      694
6.82     725
6.84     690
6.86     711
6.88     695
6.9      722
6.92     762
6.94     804
6.96     848
6.98     839
7.0      824
7.02     810
7.04     770
7.06     788
7.08     765
7.1      760
7.12     806
7.14     795
7.16     843
7.18     838
7.2      861
7.22     820
7.24     854
7.26     838
7.28     810
7.3      779
7.32     753
7.34     703
7.36     708
7.38     685
7.4      701
7.42     702
7.44     763
7.46     738
7.48     773
7.5      758
7.52     728
7.54     709
7.56     702
7.58     743
7.6      793
7.62     837
7.64     869
7.66     840
7.68     896
7.7      802
7.72     744
7.74     739
7.76     719
7.78     732
7.8      760
7.82     779
7.84     789
7.86     799
7.88     838
7.9      795
7.92     792
7.94     814
7.96     808
7.98     755
8.0      798
8.02     759
8.04     792
8.06     745
8.08     735
8.1      717
8.12     718
8.14     689
8.16     721
8.18     696
8.2      753
8.22     687
8.24     750
8.26     672
8.28     673
8.3      687
8.32     699
8.34     721
8.36     765
8.38     758
8.4      775
8.42     742
8.44     769
8.46     782
8.48     786
8.5      780
8.52     718
8.54     734
8.56     693
8.58     660
8.6      665
8.62     686
8.64     708
8.66     761
8.68     751
8.7      708
8.72     716
8.74     705
8.76     735
8.78     729
8.8      758
8.82     758
8.84     767
8.86     697
8.88     679
8.9      629
8.92     669
8.94     637
8.96     696
8.98     692
9.0      723
9.02     676
9.04     664
9.06     647
9.08     642
9.1      611
9.12     643
9.14     648
9.16     668
9.18     697
9.2      705
9.22     685
9.24     712
9.26     746
9.28     693
9.3      676
9.32     642
9.34     662
9.36     577
9.38     595
9.4      592
9.42     634
9.44     659
9.46     672
9.48     654
9.5      665
9.52     632
9.54     652
9.56     554
9.58     558
9.6      546
9.62     557
9.64     555
9.66     608
9.68     667
9.7      664
9.72     638
9.74     670
9.76     617
9.78     568
9.8      549
9.82     527
9.84     540
9.86     582
9.88     629
9.9      597
9.92     608
9.94     636
9.96     618
9.98     595
10.0     584
10.02    569
10.04    515
10.06    518
10.08    509
10.1     477
10.12    539
10.14    524
10.16    562
10.18    586
10.2     593
10.22    626
10.24    593
10.26    612
10.28    574
10.3     556
10.32    552
10.34    514
10.36    472
10.38    466
10.4     459
10.42    532
10.44    597
10.46    626
10.48    637
10.5     675
10.52    656
10.54    631
10.56    518
10.58    506
10.6     570
10.62    607
10.64    638
10.66    630
10.68    581
10.7     612
10.72    600
10.74    526
10.76    488
10.78    470
10.8     555
10.82    529
10.84    540
10.86    562
10.88    518
10.9     553
10.92    585
10.94    568
10.96    578
10.98    564
11.0     621
11.02    607
11.04    620
11.06    622
11.08    543
11.1     530
11.12    491
11.14    456
11.16    509
11.18    498
11.2     514
11.22    515
11.24    529
11.26    574
11.28    571
11.3     525
11.32    485
11.34    526
11.36    592
11.38    583
11.4     613
11.42    599
11.44    609
11.46    673
11.48    690
11.5     584
11.52    629
11.54    672
11.56    737
11.58    774
11.6     772
11.62    721
11.64    677
11.66    659
11.68    639
11.7     574
11.72    633
11.74    642
11.76    701
11.78    715
11.8     715
11.82    667
11.84    667
11.86    677
11.88    677
11.9     696
11.92    695
11.94    697
11.96    700
11.98    704
12.0     683
12.02    648
12.04    672
12.06    690
12.08    678
12.1     672
12.12    641
12.14    697
12.16    693
12.18    712
12.2     730
12.22    767
12.24    808
12.26    839
12.28    806
12.3     804
12.32    739
12.34    727
12.36    694
12.38    706
12.4     715
12.42    737
12.44    734
12.46    747
12.48    699
12.5     695
12.52    666
12.54    651
12.56    727
12.58    746
12.6     744
12.62    801
12.64    792
12.66    858
12.68    801
12.7     808
12.72    850
12.74    859
12.76    829
12.78    771
12.8     725
12.82    726
12.84    693
12.86    662
12.88    603
12.9     609
12.92    702
12.94    757
12.96    728
12.98    771
13.0     802
13.02    816
13.04    815
13.06    751
13.08    768
13.1     746
13.12    810
13.14    786
13.16    769
13.18    808
13.2     800
13.22    785
13.24    776
13.26    771
13.28    792
13.3     806
13.32    843
13.34    799
13.36    821
13.38    873
13.4     891
13.42    942
13.44    965
13.46    964
13.48    933
13.5     933
13.52    894
13.54    826
13.56    795
13.58    808
13.6     821
13.62    816
13.64    837
13.66    823
13.68    807
13.7     804
13.72    814
13.74    884
13.76    928
13.78    956
13.8     967
13.82    955
13.84    910
13.86    874
13.88    862
13.9     800
13.92    786
13.94    837
13.96    858
13.98    861
14.0     864
14.02    879
14.04    795
14.06    792
14.08    838
14.1     795
14.12    758
14.14    804
14.16    848
14.18    909
14.2     937
14.22    908
14.24    853
14.26    900
14.28    963
14.3     906
14.32    815
14.34    862
14.36    917
14.38    940
14.4     883
14.42    801
14.44    806
14.46    875
14.48    884
14.5     796
14.52    747
14.54    835
14.56    861
14.58    848
14.6     899
14.62    961
14.64    934
14.66    919
14.68    911
14.7     936
14.72    945
14.74    945
14.76    890
14.78    904
14.8     1004
14.82    1031
14.84    940
14.86    914
14.88    996
14.9     1077
14.92    1080
14.94    1075
14.96    1075
14.98    1104
15.0     1092
15.02    1037
15.04    956
15.06    955
15.08    927
15.1     867
15.12    865
15.14    870
15.16    903
15.18    962
15.2     987
15.22    980
15.24    989
15.26    1031
15.28    988
15.3     964
15.32    995
15.34    927
15.36    903
15.38    923
15.4     934
15.42    914
15.44    920
15.46    900
15.48    930
15.5     942
15.52    939
15.54    901
15.56    930
15.58    994
15.6     1007
15.62    1028
15.64    1014
15.66    962
15.68    960
15.7     925
15.72    879
15.74    893
15.76    919
15.78    940
15.8     932
15.82    1008
15.84    1034
15.86    1032
15.88    1069
15.9     1119
15.92    1163
15.94    1208
15.96    1213
15.98    1296
16.0     1450
16.02    1585
16.04    1633
16.06    1683
16.08    1773
16.1     1869
16.12    1959
16.14    1992
16.16    2059
16.18    2270
16.2     2465
16.22    2645
16.24    2842
16.26    3114
16.28    3489
16.3     4040
16.32    4684
16.34    5371
16.36    6351
16.38    7571
16.4     8979
16.42    10780
16.44    13014
16.46    15974
16.48    20209
16.5     26034
16.52    33375
16.54    40933
16.56    46940
16.58    49390
16.6     47689
16.62    42158
16.64    33796
16.66    24199
16.68    15253
16.7     8585
16.72    4861
16.74    3379
16.76    3082
16.78    2913
16.8     2659
16.82    2366
16.84    2090
16.86    1862
16.88    1720
16.9     1695
16.92    1597
16.94    1550
16.96    1591
16.98    1541
17.0     1449
17.02    1409
17.04    1295
17.06    1219
17.08    1196
17.1     1222
17.12    1248
17.14    1238
17.16    1225
17.18    1167
17.2     1229
17.22    1271
17.24    1223
17.26    1174
17.28    1118
17.3     1191
17.32    1213
17.34    1123
17.36    1057
17.38    979
17.4     970
17.42    970
17.44    930
17.46    899
17.48    883
17.5     956
17.52    957
17.54    884
17.56    855
17.58    883
17.6     907
17.62    963
17.64    957
17.66    928
17.68    906
17.7     878
17.72    862
17.74    813
17.76    846
17.78    881
17.8     878
17.82    871
17.84    842
17.86    829
17.88    863
17.9     854
17.92    797
17.94    786
17.96    823
17.98    844
18.0     860
18.02    814
18.04    773
18.06    820
18.08    914
18.1     902
18.12    797
18.14    801
18.16    800
18.18    875
18.2     838
18.22    759
18.24    759
18.26    836
18.28    841
18.3     771
18.32    728
18.34    757
18.36    727
18.38    760
18.4     704
18.42    672
18.44    695
18.46    700
18.48    657
18.5     684
18.52    747
18.54    774
18.56    717
18.58    682
18.6     736
18.62    737
18.64    699
18.66    687
18.68    649
18.7     718
18.72    744
18.74    736
18.76    687
18.78    676
18.8     713
18.82    716
18.84    686
18.86    646
18.88    596
18.9     664
18.92    755
18.94    771
18.96    764
18.98    774
19.0     791
19.02    871
19.04    872
19.06    823
19.08    770
19.1     783
19.12    788
19.14    703
19.16    634
19.18    642
19.2     647
19.22    666
19.24    657
19.26    632
19.28    592
19.3     591
19.32    594
19.34    597
19.36    583
19.38    629
19.4     644
19.42    645
19.44    641
19.46    689
19.48    679
19.5     662
19.52    594
19.54    544
19.56    559
19.58    581
19.6     584
19.62    565
19.64    572
19.66    651
19.68    693
19.7     677
19.72    588
19.74    580
19.76    578
19.78    511
19.8     457
19.82    452
19.84    426
19.86    466
19.88    559
19.9     594
19.92    665
19.94    715
19.96    663
19.98    617
20.0     569
20.02    521
20.04    510
20.06    540
20.08    572
20.1     551
20.12    652
20.14    662
20.16    644
20.18    611
20.2     573
20.22    537
20.24    588
20.26    589
20.28    612
20.3     586
20.32    650
20.34    617
20.36    598
20.38    538
20.4     542
20.42    512
20.44    491
20.46    473
20.48    519
20.5     525
20.52    579
20.54    577
20.56    558
20.58    563
20.6     603
20.62    596
20.64    587
20.66    641
20.68    679
20.7     667
20.72    676
20.74    623
20.76    619
20.78    652
20.8     672
20.82    675
20.84    677
20.86    684
20.88    650
20.9     603
20.92    588
20.94    567
20.96    607
20.98    606
21.0     638
21.02    639
21.04    640
21.06    611
21.08    620
21.1     615
21.12    614
21.14    598
21.16    536
21.18    539
21.2     561
21.22    589
21.24    631
21.26    623
21.28    631
21.3     603
21.32    576
21.34    635
21.36    610
21.38    578
21.4     489
21.42    488
21.44    494
21.46    451
21.48    474
21.5     450
21.52    525
21.54    584
21.56    576
21.58    475
21.6     400
21.62    392
21.64    415
21.66    433
21.68    517
21.7     534
21.72    619
21.74    560
21.76    597
21.78    521
21.8     548
21.82    540
21.84    596
21.86    590
21.88    549
21.9     548
21.92    572
21.94    595
21.96    575
21.98    485
22.0     475
22.02    460
22.04    505
22.06    499
22.08    496
22.1     528
22.12    593
22.14    666
22.16    625
22.18    510
22.2     446
22.22    426
22.24    429
22.26    456
22.28    510
22.3     500
22.32    520
22.34    512
22.36    512
22.38    471
22.4     504
22.42    432
22.44    441
22.46    465
22.48    519
22.5     476
22.52    440
22.54    406
22.56    502
22.58    526
22.6     560
22.62    457
22.64    520
22.66    569
22.68    595
22.7     533
22.72    487
22.74    474
22.76    533
22.78    496
22.8     494
22.82    456
22.84    482
22.86    527
22.88    562
22.9     588
22.92    564
22.94    493
22.96    448
22.98    399
23.0     373
23.02    410
23.04    366
23.06    405
23.08    427
23.1     495
23.12    493
23.14    493
23.16    470
23.18    496
23.2     522
23.22    561
23.24    511
23.26    490
23.28    444
23.3     458
23.32    498
23.34    523
23.36    469
23.38    482
23.4     454
23.42    469
23.44    477
23.46    530
23.48    559
23.5     560
23.52    585
23.54    503
23.56    444
23.58    419
23.6     475
23.62    493
23.64    457
23.66    418
23.68    428
23.7     423
23.72    457
23.74    417
23.76    406
23.78    375
23.8     439
23.82    420
23.84    436
23.86    457
23.88    520
23.9     557
23.92    562
23.94    527
23.96    396
23.98    377
24.0     386
24.02    487
24.04    531
24.06    545
24.08    524
24.1     529
24.12    464
24.14    459
24.16    373
24.18    362
24.2     380
24.22    424
24.24    439
24.26    475
24.28    502
24.3     485
24.32    503
24.34    549
24.36    501
24.38    448
24.4     483
24.42    479
24.44    482
24.46    458
24.48    400
24.5     342
24.52    393
24.54    427
24.56    462
24.58    469
24.6     487
24.62    493
24.64    430
24.66    468
24.68    477
24.7     435
24.72    446
24.74    444
24.76    495
24.78    428
24.8     409
24.82    366
24.84    368
24.86    435
24.88    472
24.9     392
24.92    376
24.94    381
24.96    444
24.98    430
25.0     460
25.02    430
25.04    450
25.06    452
25.08    517
25.1     497
25.12    512
25.14    473
25.16    466
25.18    420
25.2     381
25.22    360
25.24    393
25.26    406
25.28    459
25.3     431
25.32    433
25.34    436
25.36    486
25.38    470
25.4     458
25.42    519
25.44    481
25.46    445
25.48    364
25.5     404
25.52    466
25.54    558
25.56    585
25.58    603
25.6     574
25.62    509
25.64    345
25.66    291
25.68    250
25.7     360
25.72    406
25.74    486
25.76    464
25.78    511
25.8     486
25.82    409
25.84    378
25.86    370
25.88    360
25.9     414
25.92    458
25.94    433
25.96    380
25.98    416
26.0     400
26.02    411
26.04    442
26.06    478
26.08    484
26.1     478
26.12    418
26.14    345
26.16    324
26.18    324
26.2     360
26.22    405
26.24    458
26.26    480
26.28    477
26.3     459
26.32    397
26.34    440
26.36    401
26.38    429
26.4     407
26.42    384
26.44    394
26.46    332
26.48    348
26.5     382
26.52    358
26.54    426
26.56    392
26.58    417
26.6     362
26.62    438
26.64    453
26.66    377
26.68    380
26.7     399
26.72    387
26.74    421
26.76    431
26.78    439
26.8     527
26.82    595
26.84    585
26.86    573
26.88    557
26.9     497
26.92    425
26.94    384
26.96    349
26.98    333
27.0     365
27.02    348
27.04    421
27.06    540
27.08    608
27.1     567
27.12    493
27.14    459
27.16    425
27.18    447
27.2     444
27.22    452
27.24    428
27.26    464
27.28    433
27.3     359
27.32    312
27.34    296
27.36    319
27.38    372
27.4     435
27.42    454
27.44    413
27.46    385
27.48    282
27.5     263
27.52    256
27.54    271
27.56    350
27.58    355
27.6     370
27.62    349
27.64    347
27.66    316
27.68    338
27.7     387
27.72    410
27.74    469
27.76    491
27.78    450
27.8     424
27.82    400
27.84    427
27.86    410
27.88    444
27.9     450
27.92    419
27.94    464
27.96    452
27.98    469
28.0     476
28.02    426
28.04    385
28.06    279
28.08    316
28.1     379
28.12    405
28.14    557
28.16    593
28.18    604
28.2     558
28.22    475
28.24    449
28.26    372
28.28    444
28.3     444
28.32    405
28.34    444
28.36    393
28.38    382
28.4     349
28.42    366
28.44    397
28.46    426
28.48    510
28.5     473
28.52    476
28.54    466
28.56    455
28.58    456
28.6     349
28.62    266
28.64    219
28.66    231
28.68    282
28.7     322
28.72    441
28.74    473
28.76    520
28.78    501
28.8     393
28.82    317
28.84    335
28.86    366
28.88    401
28.9     468
28.92    486
28.94    468
28.96    467
28.98    349
29.0     268
29.02    240
29.04    227
29.06    278
29.08    296
29.1     335
29.12    413
29.14    474
29.16    549
29.18    465
29.2     432
29.22    415
29.24    362
29.26    401
29.28    389
29.3     410
29.32    490
29.34    502
29.36    535
29.38    452
29.4     405
29.42    391
29.44    368
29.46    408
29.48    385
29.5     399
29.52    416
29.54    467
29.56    479
29.58    451
29.6     426
29.62    348
29.64    294
29.66    280
29.68    219
29.7     194
29.72    202
29.74    302
29.76    381
29.78    463
29.8     505
29.82    454
29.84    513
29.86    534
29.88    515
29.9     444
29.92    401
29.94    426
29.96    450
29.98    484
30.0     469
30.02    415
30.04    428
30.06    391
30.08    381
30.1     357
30.12    446
30.14    507
30.16    613
30.18    706
30.2     646
30.22    568
30.24    466
30.26    393
30.28    363
30.3     356
30.32    399
30.34    391
30.36    436
30.38    460
30.4     401
30.42    403
30.44    384
30.46    375
30.48    387
30.5     393
30.52    384
30.54    400
30.56    397
30.58    437
30.6     438
30.62    471
30.64    456
30.66    452
30.68    486
30.7     452
30.72    456
30.74    408
30.76    345
30.78    314
30.8     253
30.82    172
30.84    149
30.86    188
30.88    292
30.9     369
30.92    472
30.94    515
30.96    500
30.98    471
31.0     406
31.02    243
31.04    181
31.06    190
31.08    229
31.1     348
31.12    391
31.14    480
31.16    483
31.18    462
31.2     494
31.22    425
31.24    419
31.26    465
31.28    430
31.3     486
31.32    424
31.34    442
31.36    425
31.38    399
31.4     433
31.42    401
31.44    380
31.46    362
31.48    325
31.5     337
31.52    324
31.54    399
31.56    380
31.58    446
31.6     481
31.62    477
31.64    575
31.66    613
31.68    593
31.7     572
31.72    515
31.74    449
31.76    341
31.78    313
31.8     271
31.82    243
31.84    319
31.86    334
31.88    351
31.9     398
31.92    455
31.94    463
31.96    469
31.98    414
32.0     374
32.02    323
32.04    315
32.06    339
32.08    379
32.1     433
32.12    499
32.14    499
32.16    478
32.18    411
32.2     400
32.22    338
32.24    317
32.26    324
32.28    308
32.3     350
32.32    429
32.34    535
32.36    617
32.38    627
32.4     616
32.42    528
32.44    422
32.46    369
32.48    300
32.5     293
32.52    352
32.54    443
32.56    528
32.58    545
32.6     539
32.62    523
32.64    497
32.66    435
32.68    402
32.7     423
32.72    458
32.74    518
32.76    603
32.78    665
32.8     693
32.82    693
32.84    706
32.86    657
32.88    655
32.9     699
32.92    699
32.94    691
32.96    705
32.98    722
33.0     681
33.02    627
33.04    592
33.06    521
33.08    509
33.1     535
33.12    570
33.14    594
33.16    635
33.18    626
33.2     627
33.22    643
33.24    632
33.26    645
33.28    761
33.3     872
33.32    1061
33.34    1255
33.36    1395
33.38    1555
33.4     1847
33.42    2199
33.44    2793
33.46    3755
33.48    5157
33.5     7040
33.52    9196
33.54    11177
33.56    12471
33.58    12849
33.6     12059
33.62    10377
33.64    8151
33.66    5791
33.68    3794
33.7     2489
33.72    1727
33.74    1477
33.76    1405
33.78    1297
33.8     1112
33.82    1003
33.84    841
33.86    740
33.88    744
33.9     775
33.92    791
33.94    844
33.96    797
33.98    701
34.0     675
34.02    689
34.04    704
34.06    715
34.08    747
34.1     690
34.12    622
34.14    538
34.16    443
34.18    453
34.2     503
34.22    582
34.24    626
34.26    662
34.28    696
34.3     662
34.32    587
34.34    588
34.36    535
34.38    585
34.4     596
34.42    625
34.44    594
34.46    590
34.48    596
34.5     571
34.52    555
34.54    598
34.56    582
34.58    615
34.6     650
34.62    657
34.64    629
34.66    620
34.68    577
34.7     565
34.72    586
34.74    610
34.76    626
34.78    648
34.8     667
34.82    688
34.84    655
34.86    695
34.88    741
34.9     862
34.92    974
34.94    1101
34.96    1252
34.98    1444
35.0     1768
35.02    2310
35.04    3280
35.06    5030
35.08    7330
35.1     9666
35.12    11550
35.14    12586
35.16    12475
35.18    11258
35.2     9271
35.22    6856
35.24    4666
35.26    3058
35.28    2075
35.3     1490
35.32    1246
35.34    1071
35.36    966
35.38    897
35.4     883
35.42    891
35.44    909
35.46    917
35.48    914
35.5     910
35.52    917
35.54    864
35.56    822
35.58    746
35.6     633
35.62    546
35.64    515
35.66    584
35.68    641
35.7     686
35.72    721
35.74    751
35.76    713
35.78    743
35.8     682
35.82    627
35.84    609
35.86    734
35.88    724
35.9     660
35.92    715
35.94    731
35.96    727
35.98    789
36.0     764
36.02    709
36.04    714
36.06    730
36.08    633
36.1     646
36.12    768
36.14    861
36.16    856
36.18    984
36.2     1014
36.22    1098
36.24    1225
36.26    1348
36.28    1534
36.3     1817
36.32    2192
36.34    2772
36.36    3474
36.38    4861
36.4     7083
36.42    10794
36.44    15674
36.46    20757
36.48    24772
36.5     26892
36.52    26614
36.54    24102
36.56    19714
36.58    14481
36.6     9480
36.62    5845
36.64    3612
36.66    2410
36.68    1758
36.7     1467
36.72    1252
36.74    1223
36.76    1154
36.78    1118
36.8     1097
36.82    1056
36.84    957
36.86    863
36.88    808
36.9     790
36.92    738
36.94    742
36.96    713
36.98    754
37.0     816
37.02    834
37.04    867
37.06    926
37.08    918
37.1     884
37.12    914
37.14    925
37.16    847
37.18    801
37.2     774
37.22    687
37.24    617
37.26    664
37.28    589
37.3     592
37.32    761
37.34    882
37.36    958
37.38    1096
37.4     1176
37.42    1063
37.44    962
37.46    821
37.48    558
37.5     383
37.52    370
37.54    367
37.56    452
37.58    587
37.6     690
37.62    642
37.64    678
37.66    560
37.68    467
37.7     429
37.72    423
37.74    443
37.76    521
37.78    538
37.8     537
37.82    507
37.84    568
37.86    523
37.88    555
37.9     626
37.92    660
37.94    695
37.96    709
37.98    656
38.0     617
38.02    615
38.04    572
38.06    538
38.08    552
38.1     562
38.12    515
38.14    460
38.16    428
38.18    416
38.2     433
38.22    452
38.24    464
38.26    520
38.28    607
38.3     649
38.32    629
38.34    522
38.36    447
38.38    348
38.4     307
38.42    326
38.44    463
38.46    591
38.48    750
38.5     812
38.52    728
38.54    593
38.56    507
38.58    431
38.6     414
38.62    477
38.64    613
38.66    677
38.68    705
38.7     650
38.72    506
38.74    435
38.76    374
38.78    365
38.8     357
38.82    478
38.84    589
38.86    659
38.88    700
38.9     678
38.92    597
38.94    591
38.96    534
38.98    463
39.0     387
39.02    423
39.04    420
39.06    419
39.08    431
39.1     419
39.12    397
39.14    451
39.16    483
39.18    508
39.2     532
39.22    527
39.24    537
39.26    496
39.28    427
39.3     315
39.32    325
39.34    378
39.36    423
39.38    535
39.4     649
39.42    655
39.44    690
39.46    592
39.48    440
39.5     256
39.52    288
39.54    316
39.56    421
39.58    539
39.6     706
39.62    744
39.64    758
39.66    684
39.68    522
39.7     348
39.72    338
39.74    362
39.76    444
39.78    489
39.8     610
39.82    660
39.84    656
39.86    594
39.88    486
39.9     387
39.92    339
39.94    341
39.96    379
39.98    408
40.0     498
40.02    613
40.04    729
40.06    846
40.08    938
40.1     963
40.12    989
40.14    979
40.16    902
40.18    739
40.2     647
40.22    616
40.24    656
40.26    724
40.28    799
40.3     889
40.32    893
40.34    855
40.36    809
40.38    732
40.4     724
40.42    709
40.44    775
40.46    814
40.48    891
40.5     957
40.52    917
40.54    899
40.56    899
40.58    875
40.6     810
40.62    713
40.64    741
40.66    716
40.68    759
40.7     853
40.72    928
40.74    977
40.76    1047
40.78    1151
40.8     1115
40.82    1078
40.84    1132
40.86    1147
40.88    1064
40.9     1063
40.92    1057
40.94    1084
40.96    1168
40.98    1349
41.0     1436
41.02    1535
41.04    1654
41.06    1701
41.08    1635
41.1     1630
41.12    1667
41.14    1739
41.16    1807
41.18    2009
41.2     2202
41.22    2452
41.24    2767
41.26    3177
41.28    3596
41.3     4146
41.32    4872
41.34    5675
41.36    6688
41.38    8107
41.4     10075
41.42    12908
41.44    17343
41.46    24577
41.48    36209
41.5     52893
41.52    71479
41.54    87009
41.56    95763
41.58    96162
41.6     88168
41.62    73347
41.64    54649
41.66    36187
41.68    22031
41.7     13765
41.72    9612
41.74    7220
41.76    5524
41.78    4346
41.8     3630
41.82    3253
41.84    2982
41.86    2929
41.88    2903
41.9     2643
41.92    2319
41.94    2005
41.96    1760
41.98    1554
42.0     1518
42.02    1516
42.04    1470
42.06    1530
42.08    1523
42.1     1423
42.12    1324
42.14    1247
42.16    1218
42.18    1170
42.2     1184
42.22    1180
42.24    1157
42.26    1145
42.28    1102
42.3     1076
42.32    1037
42.34    1021
42.36    1073
42.38    1078
42.4     1071
42.42    1030
42.44    1013
42.46    986
42.48    918
42.5     925
42.52    892
42.54    864
42.56    889
42.58    871
42.6     833
42.62    816
42.64    810
42.66    816
42.68    778
42.7     816
42.72    868
42.74    855
42.76    892
42.78    862
42.8     858
42.82    860
42.84    840
42.86    888
42.88    863
42.9     841
42.92    821
42.94    748
42.96    738
42.98    653
43.0     619
43.02    571
43.04    627
43.06    762
43.08    848
43.1     902
43.12    962
43.14    1012
43.16    952
43.18    884
43.2     817
43.22    775
43.24    832
43.26    808
43.28    796
43.3     817
43.32    839
43.34    781
43.36    658
43.38    664
43.4     627
43.42    590
43.44    566
43.46    565
43.48    586
43.5     637
43.52    685
43.54    732
43.56    756
43.58    768
43.6     718
43.62    616
43.64    559
43.66    573
43.68    560
43.7     623
43.72    731
43.74    855
43.76    914
43.78    906
43.8     854
43.82    770
43.84    677
43.86    613
43.88    578
43.9     612
43.92    666
43.94    745
43.96    803
43.98    811
44.0     773
44.02    731
44.04    624
44.06    605
44.08    528
44.1     505
44.12    532
44.14    552
44.16    632
44.18    657
44.2     673
44.22    700
44.24    696
44.26    727
44.28    605
44.3     564
44.32    560
44.34    563
44.36    537
44.38    535
44.4     612
44.42    691
44.44    725
44.46    740
44.48    710
44.5     679
44.52    632
44.54    572
44.56    472
44.58    486
44.6     488
44.62    509
44.64    551
44.66    671
44.68    755
44.7     727
44.72    688
44.74    636
44.76    560
44.78    509
44.8     502
44.82    548
44.84    595
44.86    683
44.88    817
44.9     938
44.92    1003
44.94    1075
44.96    1197
44.98    1441
45.0     1731
45.02    1973
45.04    2162
45.06    2216
45.08    2242
45.1     2058
45.12    1730
45.14    1417
45.16    1158
45.18    996
45.2     842
45.22    774
45.24    751
45.26    733
45.28    740
45.3     713
45.32    767
45.34    776
45.36    738
45.38    698
45.4     621
45.42    573
45.44    504
45.46    480
45.48    498
45.5     540
45.52    624
45.54    668
45.56    690
45.58    738
45.6     752
45.62    761
45.64    670
45.66    579
45.68    568
45.7     505
45.72    442
45.74    396
45.76    429
45.78    415
45.8     414
45.82    498
45.84    535
45.86    601
45.88    707
45.9     715
45.92    712
45.94    672
45.96    663
45.98    509
46.0     399
46.02    427
46.04    427
46.06    494
46.08    556
46.1     669
46.12    736
46.14    766
46.16    800
46.18    690
46.2     572
46.22    530
46.24    472
46.26    433
46.28    394
46.3     476
46.32    524
46.34    568
46.36    613
46.38    627
46.4     636
46.42    681
46.44    658
46.46    621
46.48    599
46.5     582
46.52    561
46.54    504
46.56    499
46.58    522
46.6     509
46.62    553
46.64    573
46.66    587
46.68    603
46.7     584
46.72    584
46.74    608
46.76    570
46.78    596
46.8     596
46.82    619
46.84    614
46.86    585
46.88    558
46.9     500
46.92    497
46.94    444
46.96    371
46.98    424
47.0     461
47.02    511
47.04    552
47.06    635
47.08    688
47.1     684
47.12    667
47.14    579
47.16    536
47.18    490
47.2     474
47.22    444
47.24    430
47.26    495
47.28    524
47.3     570
47.32    608
47.34    701
47.36    752
47.38    743
47.4     765
47.42    662
47.44    580
47.46    509
47.48    427
47.5     466
47.52    446
47.54    485
47.56    496
47.58    558
47.6     674
47.62    696
47.64    760
47.66    781
47.68    830
47.7     788
47.72    695
47.74    620
47.76    556
47.78    517
47.8     521
47.82    498
47.84    461
47.86    440
47.88    491
47.9     427
47.92    513
47.94    537
47.96    630
47.98    708
48.0     733
48.02    659
48.04    588
48.06    560
48.08    565
48.1     531
48.12    570
48.14    578
48.16    633
48.18    646
48.2     598
48.22    557
48.24    603
48.26    600
48.28    610
48.3     574
48.32    564
48.34    603
48.36    535
48.38    498
48.4     541
48.42    607
48.44    718
48.46    704
48.48    733
48.5     763
48.52    714
48.54    660
48.56    506
48.58    407
48.6     442
48.62    422
48.64    426
48.66    413
48.68    483
48.7     568
48.72    533
48.74    513
48.76    555
48.78    512
48.8     603
48.82    579
48.84    617
48.86    599
48.88    601
48.9     625
48.92    625
48.94    610
48.96    613
48.98    567
49.0     611
49.02    569
49.04    542
49.06    478
49.08    485
49.1     513
49.12    523
49.14    502
49.16    483
49.18    525
49.2     507
49.22    494
49.24    476
49.26    494
49.28    533
49.3     545
49.32    578
49.34    577
49.36    546
49.38    522
49.4     445
49.42    406
49.44    423
49.46    397
49.48    457
49.5     504
49.52    579
49.54    626
49.56    618
49.58    620
49.6     636
49.62    642
49.64    564
49.66    508
49.68    511
49.7     482
49.72    420
49.74    362
49.76    354
49.78    408
49.8     470
49.82    508
49.84    492
49.86    596
49.88    619
49.9     571
49.92    542
49.94    517
49.96    536
49.98    488
50.0     440
50.02    424
50.04    466
50.06    488
50.08    538
50.1     557
50.12    648
50.14    675
50.16    719
50.18    672
50.2     645
50.22    654
50.24    678
50.26    677
50.28    682
50.3     638
50.32    577
50.34    508
50.36    478
50.38    409
50.4     398
50.42    411
50.44    420
50.46    480
50.48    481
50.5     510
50.52    547
50.54    575
50.56    598
50.58    643
50.6     628
50.62    571
50.64    564
50.66    527
50.68    490
50.7     425
50.72    415
50.74    420
50.76    502
50.78    558
50.8     629
50.82    630
50.84    672
50.86    641
50.88    627
50.9     564
50.92    527
50.94    569
50.96    632
50.98    613
51.0     652
51.02    617
51.04    554
51.06    464
51.08    422
51.1     430
51.12    490
51.14    619
51.16    678
51.18    710
51.2     725
51.22    718
51.24    654
51.26    554
51.28    511
51.3     492
51.32    504
51.34    518
51.36    537
51.38    540
51.4     507
51.42    500
51.44    520
51.46    485
51.48    478
51.5     440
51.52    458
51.54    503
51.56    579
51.58    537
51.6     573
51.62    614
51.64    608
51.66    615
51.68    604
51.7     564
51.72    619
51.74    633
51.76    639
51.78    636
51.8     682
51.82    641
51.84    598
51.86    563
51.88    547
51.9     500
51.92    610
51.94    612
51.96    686
51.98    760
52.0     787
52.02    732
52.04    708
52.06    583
52.08    568
52.1     524
52.12    559
52.14    516
52.16    578
52.18    650
52.2     776
52.22    767
52.24    805
52.26    787
52.28    833
52.3     810
52.32    759
52.34    645
52.36    599
52.38    597
52.4     610
52.42    512
52.44    507
52.46    499
52.48    529
52.5     550
52.52    517
52.54    482
52.56    562
52.58    610
52.6     686
52.62    717
52.64    760
52.66    842
52.68    860
52.7     819
52.72    672
52.74    545
52.76    442
52.78    376
52.8     391
52.82    421
52.84    498
52.86    624
52.88    730
52.9     834
52.92    826
52.94    784
52.96    741
52.98    722
53.0     703
53.02    622
53.04    596
53.06    597
53.08    629
53.1     693
53.12    739
53.14    800
53.16    922
53.18    1012
53.2     1111
53.22    1149
53.24    1168
53.26    1197
53.28    1242
53.3     1340
53.32    1503
53.34    1815
53.36    2348
53.38    3173
53.4     4332
53.42    5804
53.44    7263
53.46    8393
53.48    8903
53.5     8769
53.52    7994
53.54    6803
53.56    5334
53.58    3951
53.6     2889
53.62    2301
53.64    1930
53.66    1617
53.68    1328
53.7     1180
53.72    1054
53.74    1016
53.76    918
53.78    850
53.8     850
53.82    874
53.84    851
53.86    829
53.88    802
53.9     829
53.92    833
53.94    803
53.96    740
53.98    730
54.0     722
54.02    671
54.04    647
54.06    591
54.08    620
54.1     704
54.12    702
54.14    668
54.16    698
54.18    760
54.2     759
54.22    738
54.24    687
54.26    649
54.28    685
54.3     685
54.32    614
54.34    593
54.36    597
54.38    593
54.4     584
54.42    613
54.44    613
54.46    657
54.48    689
54.5     671
54.52    686
54.54    695
54.56    677
54.58    610
54.6     571
54.62    524
54.64    507
54.66    461
54.68    430
54.7     468
54.72    521
54.74    601
54.76    643
54.78    655
54.8     720
54.82    747
54.84    738
54.86    730
54.88    646
54.9     624
54.92    570
54.94    548
54.96    458
54.98    439
55.0     489
55.02    527
55.04    555
55.06    618
55.08    575
55.1     543
55.12    585
55.14    566
55.16    537
55.18    546
55.2     598
55.22    648
55.24    725
55.26    741
55.28    681
55.3     635
55.32    606
55.34    574
55.36    518
55.38    535
55.4     539
55.42    555
55.44    584
55.46    587
55.48    560
55.5     567
55.52    536
55.54    594
55.56    667
55.58    752
55.6     823
55.62    809
55.64    858
55.66    833
55.68    767
55.7     711
55.72    604
55.74    558
55.76    560
55.78    479
55.8     469
55.82    438
55.84    504
55.86    547
55.88    589
55.9     651
55.92    667
55.94    691
55.96    739
55.98    703
56.0     630
56.02    567
56.04    549
56.06    535
56.08    511
56.1     513
56.12    508
56.14    542
56.16    638
56.18    659
56.2     701
56.22    735
56.24    785
56.26    762
56.28    761
56.3     704
56.32    645
56.34    617
56.36    597
56.38    577
56.4     597
56.42    549
56.44    553
56.46    567
56.48    624
56.5     638
56.52    718
56.54    746
56.56    767
56.58    798
56.6     714
56.62    629
56.64    576
56.66    556
56.68    557
56.7     532
56.72    570
56.74    538
56.76    570
56.78    622
56.8     634
56.82    661
56.84    664
56.86    687
56.88    676
56.9     658
56.92    654
56.94    609
56.96    572
56.98    620
57.0     649
57.02    635
57.04    665
57.06    704
57.08    691
57.1     697
57.12    727
57.14    682
57.16    662
57.18    657
57.2     583
57.22    541
57.24    617
57.26    696
57.28    701
57.3     766
57.32    854
57.34    912
57.36    970
57.38    961
57.4     829
57.42    723
57.44    715
57.46    674
57.48    614
57.5     636
57.52    676
57.54    735
57.56    870
57.58    976
57.6     923
57.62    953
57.64    1006
57.66    1033
57.68    1006
57.7     986
57.72    890
57.74    788
57.76    855
57.78    850
57.8     809
57.82    843
57.84    895
57.86    1023
57.88    1113
57.9     1243
57.92    1279
57.94    1402
57.96    1550
57.98    1665
58.0     1753
58.02    1868
58.04    1979
58.06    2152
58.08    2386
58.1     2674
58.12    3067
58.14    3760
58.16    4745
58.18    6202
58.2     8366
58.22    11149
58.24    14343
58.26    17504
58.28    19713
58.3     20552
58.32    19943
58.34    17933
58.36    14922
58.38    11477
58.4     8313
58.42    5808
58.44    4269
58.46    3359
58.48    2659
58.5     2256
58.52    2068
58.54    1960
58.56    1907
58.58    1859
58.6     1746
58.62    1638
58.64    1587
58.66    1474
58.68    1285
58.7     1104
58.72    942
58.74    829
58.76    755
58.78    754
58.8     685
58.82    642
58.84    733
58.86    843
58.88    926
58.9     968
58.92    948
58.94    924
58.96    1006
58.98    1027
59.0     921
59.02    780
59.04    682
59.06    616
59.08    624
59.1     605
59.12    548
59.14    525
59.16    619
59.18    655
59.2     704
59.22    734
59.24    756
59.26    822
59.28    900
59.3     929
59.32    876
59.34    812
59.36    750
59.38    714
59.4     721
59.42    694
59.44    663
59.46    641
59.48    638
59.5     620
59.52    571
59.54    529
59.56    553
59.58    589
59.6     640
59.62    660
59.64    656
59.66    688
59.68    666
59.7     687
59.72    630
59.74    538
59.76    604
59.78    578
59.8     584
59.82    590
59.84    592
59.86    669
59.88    742
59.9     824
59.92    783
59.94    807
59.96    873
59.98    849
60.0     842
60.02    762
60.04    670
60.06    642
60.08    632
60.1     565
60.12    537
60.14    532
60.16    533
60.18    655
60.2     745
60.22    748
60.24    768
60.26    761
60.28    766
60.3     710
60.32    687
60.34    622
60.36    570
60.38    615
60.4     612
60.42    613
60.44    594
60.46    537
60.48    529
60.5     488
60.52    526
60.54    523
60.56    508
60.58    576
60.6     631
60.62    718
60.64    754
60.66    780
60.68    768
60.7     770
60.72    747
60.74    714
60.76    681
60.78    670
60.8     627
60.82    615
60.84    644
60.86    646
60.88    648
60.9     684
60.92    680
60.94    694
60.96    636
60.98    658
61.0     647
61.02    661
61.04    684
61.06    681
61.08    722
61.1     739
61.12    729
61.14    710
61.16    672
61.18    644
61.2     630
61.22    584
61.24    626
61.26    599
61.28    596
61.3     580
61.32    603
61.34    670
61.36    735
61.38    756
61.4     790
61.42    780
61.44    849
61.46    775
61.48    774
61.5     758
61.52    758
61.54    843
61.56    936
61.58    951
61.6     911
61.62    919
61.64    900
61.66    858
61.68    851
61.7     823
61.72    792
61.74    806
61.76    825
61.78    836
61.8     878
61.82    988
61.84    1037
61.86    1140
61.88    1261
61.9     1412
61.92    1531
61.94    1657
61.96    1856
61.98    2130
62.0     2520
62.02    3187
62.04    4246
62.06    5934
62.08    8328
62.1     11248
62.12    14286
62.14    17072
62.16    19055
62.18    19857
62.2     19481
62.22    17965
62.24    15669
62.26    12976
62.28    10394
62.3     8111
62.32    6205
62.34    4797
62.36    3709
62.38    2907
62.4     2407
62.42    1985
62.44    1764
62.46    1545
62.48    1375
62.5     1196
62.52    994
62.54    907
62.56    851
62.58    811
62.6     802
62.62    766
62.64    855
62.66    868
62.68    820
62.7     769
62.72    726
62.74    749
62.76    771
62.78    839
62.8     847
62.82    826
62.84    850
62.86    826
62.88    818
62.9     777
62.92    742
62.94    747
62.96    722
62.98    747
63.0     691
63.02    622
63.04    585
63.06    606
63.08    631
63.1     611
63.12    613
63.14    630
63.16    649
63.18    690
63.2     749
63.22    753
63.24    687
63.26    666
63.28    605
63.3     598
63.32    553
63.34    575
63.36    623
63.38    666
63.4     766
63.42    847
63.44    864
63.46    892
63.48    886
63.5     846
63.52    687
63.54    595
63.56    546
63.58    487
63.6     449
63.62    494
63.64    519
63.66    598
63.68    625
63.7     650
63.72    684
63.74    762
63.76    884
63.78    927
63.8     878
63.82    849
63.84    765
63.86    709
63.88    568
63.9     527
63.92    565
63.94    593
63.96    658
63.98    751
64.0     757
64.02    795
64.04    779
64.06    775
64.08    713
64.1     696
64.12    672
64.14    624
64.16    592
64.18    597
64.2     571
64.22    566
64.24    556
64.26    626
64.28    659
64.3     723
64.32    664
64.34    617
64.36    611
64.38    576
64.4     614
64.42    652
64.44    627
64.46    669
64.48    688
64.5     764
64.52    808
64.54    860
64.56    973
64.58    992
64.6     1063
64.62    1119
64.64    1106
64.66    1159
64.68    1228
64.7     1407
64.72    1739
64.74    2189
64.76    2840
64.78    3512
64.8     4271
64.82    4940
64.84    5361
64.86    5438
64.88    5277
64.9     4834
64.92    4221
64.94    3579
64.96    2959
64.98    2348
65.0     1892
65.02    1565
65.04    1302
65.06    1013
65.08    908
65.1     792
65.12    700
65.14    680
65.16    652
65.18    592
65.2     629
65.22    703
65.24    743
65.26    716
65.28    700
65.3     727
65.32    697
65.34    687
65.36    670
65.38    612
65.4     668
65.42    667
65.44    662
65.46    700
65.48    671
65.5     683
65.52    640
65.54    646
65.56    628
65.58    582
65.6     552
65.62    519
65.64    487
65.66    502
65.68    476
65.7     442
65.72    482
65.74    528
65.76    566
65.78    637
65.8     620
65.82    660
65.84    622
65.86    664
65.88    675
65.9     603
65.92    599
65.94    541
65.96    513
65.98    551
66.0     531
66.02    505
66.04    478
66.06    536
66.08    607
66.1     601
66.12    687
66.14    742
66.16    759
66.18    755
66.2     747
66.22    700
66.24    656
66.26    594
66.28    603
66.3     582
66.32    565
66.34    629
66.36    587
66.38    552
66.4     586
66.42    559
66.44    547
66.46    517
66.48    498
66.5     494
66.52    472
66.54    590
66.56    582
66.58    624
66.6     648
66.62    648
66.64    641
66.66    646
66.68    576
66.7     539
66.72    470
66.74    513
66.76    486
66.78    503
66.8     482
66.82    479
66.84    490
66.86    536
66.88    617
66.9     640
66.92    645
66.94    678
66.96    684
66.98    731
67.0     726
67.02    656
67.04    603
67.06    572
67.08    566
67.1     492
67.12    478
67.14    458
67.16    446
67.18    530
67.2     595
67.22    602
67.24    661
67.26    740
67.28    751
67.3     802
67.32    838
67.34    792
67.36    661
67.38    583
67.4     504
67.42    415
67.44    406
67.46    344
67.48    335
67.5     392
67.52    402
67.54    427
67.56    571
67.58    675
67.6     757
67.62    790
67.64    778
67.66    712
67.68    720
67.7     676
67.72    576
67.74    536
67.76    564
67.78    512
67.8     413
67.82    335
67.84    315
67.86    322
67.88    353
67.9     376
67.92    452
67.94    543
67.96    645
67.98    719
68.0     775
68.02    813
68.04    836
68.06    817
68.08    766
68.1     673
68.12    613
68.14    595
68.16    523
68.18    509
68.2     574
68.22    598
68.24    586
68.26    589
68.28    611
68.3     625
68.32    624
68.34    664
68.36    641
68.38    653
68.4     669
68.42    612
68.44    599
68.46    562
68.48    528
68.5     568
68.52    580
68.54    635
68.56    699
68.58    693
68.6     721
68.62    714
68.64    749
68.66    760
68.68    736
68.7     787
68.72    815
68.74    926
68.76    985
68.78    1007
68.8     1121
68.82    1253
68.84    1455
68.86    1793
68.88    2207
68.9     2771
68.92    3415
68.94    4125
68.96    4627
68.98    5032
69.0     5241
69.02    5149
69.04    4759
69.06    4181
69.08    3474
69.1     2823
69.12    2228
69.14    1746
69.16    1421
69.18    1283
69.2     1114
69.22    1036
69.24    952
69.26    899
69.28    868
69.3     905
69.32    879
69.34    851
69.36    835
69.38    783
69.4     706
69.42    672
69.44    623
69.46    579
69.48    593
69.5     559
69.52    531
69.54    550
69.56    534
69.58    572
69.6     646
69.62    657
69.64    671
69.66    699
69.68    719
69.7     706
69.72    693
69.74    653
69.76    663
69.78    663
69.8     571
69.82    450
69.84    378
69.86    359
69.88    360
69.9     393
69.92    399
69.94    448
69.96    509
69.98    545
70.0     558
70.02    619
70.04    702
70.06    741
70.08    802
70.1     789
70.12    778
70.14    723
70.16    661
70.18    695
70.2     722
70.22    780
70.24    786
70.26    792
70.28    777
70.3     748
70.32    806
70.34    803
70.36    861
70.38    883
70.4     947
70.42    1051
70.44    1137
70.46    1271
70.48    1397
70.5     1587
70.52    1792
70.54    1987
70.56    2148
70.58    2291
70.6     2361
70.62    2374
70.64    2340
70.66    2193
70.68    1969
70.7     1747
70.72    1488
70.74    1281
70.76    1134
70.78    1030
70.8     949
70.82    879
70.84    832
70.86    762
70.88    720
70.9     705
70.92    637
70.94    565
70.96    565
70.98    547
71.0     525
71.02    476
71.04    491
71.06    509
71.08    580
71.1     598
71.12    620
71.14    696
71.16    759
71.18    739
71.2     685
71.22    646
71.24    585
71.26    505
71.28    488
71.3     424
71.32    481
71.34    487
71.36    481
71.38    485
71.4     515
71.42    553
71.44    586
71.46    614
71.48    681
71.5     705
71.52    729
71.54    711
71.56    673
71.58    670
71.6     665
71.62    657
71.64    671
71.66    646
71.68    620
71.7     556
71.72    534
71.74    581
71.76    546
71.78    535
71.8     513
71.82    499
71.84    556
71.86    556
71.88    592
71.9     604
71.92    651
71.94    709
71.96    674
71.98    696
72.0     697
72.02    691
72.04    671
72.06    639
72.08    691
72.1     689
72.12    715
72.14    754
72.16    747
72.18    815
72.2     814
72.22    805
72.24    796
72.26    856
72.28    1006
72.3     1019
72.32    1088
72.34    1158
72.36    1214
72.38    1342
72.4     1490
72.42    1787
72.44    2190
72.46    2827
72.48    3640
72.5     4450
72.52    5303
72.54    5961
72.56    6363
72.58    6356
72.6     5999
72.62    5392
72.64    4596
72.66    3809
72.68    3074
72.7     2499
72.72    2021
72.74    1656
72.76    1393
72.78    1169
72.8     1113
72.82    1027
72.84    1050
72.86    1076
72.88    1122
72.9     1090
72.92    1022
72.94    992
72.96    985
72.98    959
73.0     941
73.02    842
73.04    855
73.06    769
73.08    694
73.1     549
73.12    486
73.14    463
73.16    409
73.18    369
73.2     453
73.22    547
73.24    631
73.26    619
73.28    655
73.3     702
73.32    782
73.34    863
73.36    890
73.38    1041
73.4     1193
73.42    1320
73.44    1407
73.46    1419
73.48    1439
73.5     1438
73.52    1422
73.54    1355
73.56    1200
73.58    1092
73.6     947
73.62    845
73.64    707
73.66    602
73.68    580
73.7     613
73.72    682
73.74    660
73.76    586
73.78    609
73.8     678
73.82    703
73.84    640
73.86    647
73.88    665
73.9     732
73.92    743
73.94    699
73.96    712
73.98    767
74.0     818
74.02    758
74.04    655
74.06    664
74.08    704
74.1     781
74.12    835
74.14    958
74.16    1086
74.18    1273
74.2     1514
74.22    1744
74.24    2094
74.26    2425
74.28    2692
74.3     2834
74.32    2848
74.34    2762
74.36    2573
74.38    2395
74.4     2193
74.42    2056
74.44    1862
74.46    1581
74.48    1409
74.5     1263
74.52    1152
74.54    1090
74.56    1057
74.58    997
74.6     1014
74.62    988
74.64    887
74.66    886
74.68    998
74.7     1123
74.72    1315
74.74    1526
74.76    1758
74.78    1992
74.8     2284
74.82    2456
74.84    2703
74.86    2849
74.88    2941
74.9     2860
74.92    2649
74.94    2391
74.96    2120
74.98    1803
75.0     1525
75.02    1253
75.04    1130
75.06    922
75.08    806
75.1     628
75.12    504
75.14    556
75.16    590
75.18    597
75.2     711
75.22    749
75.24    841
75.26    844
75.28    877
75.3     899
75.32    982
75.34    1031
75.36    952
75.38    842
75.4     806
75.42    665
75.44    655
75.46    632
75.48    626
75.5     631
75.52    656
75.54    593
75.56    532
75.58    472
75.6     449
75.62    452
75.64    501
75.66    547
75.68    596
75.7     649
75.72    659
75.74    665
75.76    714
75.78    738
75.8     778
75.82    834
75.84    816
75.86    797
75.88    793
75.9     758
75.92    632
75.94    561
75.96    522
75.98    502
76.0     524
76.02    505
76.04    437
76.06    455
76.08    548
76.1     544
76.12    453
76.14    477
76.16    500
76.18    508
76.2     535
76.22    479
76.24    465
76.26    594
76.28    665
76.3     607
76.32    566
76.34    648
76.36    630
76.38    584
76.4     603
76.42    528
76.44    498
76.46    538
76.48    511
76.5     456
76.52    488
76.54    562
76.56    546
76.58    548
76.6     587
76.62    526
76.64    535
76.66    562
76.68    555
76.7     518
76.72    525
76.74    490
76.76    479
76.78    510
76.8     531
76.82    527
76.84    568
76.86    538
76.88    540
76.9     553
76.92    548
76.94    546
76.96    614
76.98    650
77.0     668
77.02    676
77.04    652
77.06    645
77.08    694
77.1     757
77.12    757
77.14    809
77.16    819
77.18    808
77.2     821
77.22    837
77.24    816
77.26    901
77.28    953
77.3     954
77.32    952
77.34    1030
77.36    1099
77.38    1204
77.4     1354
77.42    1588
77.44    1881
77.46    2330
77.48    2846
77.5     3532
77.52    4360
77.54    5302
77.56    6085
77.58    6656
77.6     6969
77.62    6948
77.64    6610
77.66    6006
77.68    5301
77.7     4541
77.72    3766
77.74    3136
77.76    2572
77.78    2112
77.8     1733
77.82    1419
77.84    1225
77.86    1119
77.88    1101
77.9     1050
77.92    1009
77.94    1024
77.96    1008
77.98    915
78.0     895
78.02    814
78.04    810
78.06    764
78.08    716
78.1     661
78.12    569
78.14    523
78.16    380
78.18    305
78.2     389
78.22    427
78.24    500
78.26    523
78.28    541
78.3     600
78.32    597
78.34    628
78.36    588
78.38    622
78.4     703
78.42    671
78.44    563
78.46    515
78.48    507
78.5     572
78.52    570
78.54    557
78.56    571
78.58    565
78.6     602
78.62    607
78.64    586
78.66    618
78.68    695
78.7     720
78.72    705
78.74    610
78.76    578
78.78    529
78.8     551
78.82    623
78.84    614
78.86    642
78.88    673
78.9     640
78.92    585
78.94    513
78.96    497
78.98    519
79.0     507
79.02    522
79.04    473
79.06    515
79.08    492
79.1     488
79.12    469
79.14    481
79.16    555
79.18    604
79.2     595
79.22    588
79.24    588
79.26    627
79.28    572
79.3     554
79.32    526
79.34    508
79.36    546
79.38    548
79.4     545
79.42    504
79.44    490
79.46    484
79.48    411
79.5     384
79.52    398
79.54    414
79.56    489
79.58    619
79.6     634
79.62    600
79.64    589
79.66    600
79.68    568
79.7     595
79.72    596
79.74    594
79.76    620
79.78    664
79.8     626
79.82    557
79.84    544
79.86    533
79.88    541
79.9     560
79.92    600
79.94    625
79.96    652
79.98    753
80.0     785
80.02    830
80.04    877
80.06    940
80.08    916
80.1     945
80.12    900
80.14    821
80.16    711
80.18    663
80.2     581
80.22    536
80.24    477
80.26    513
80.28    503
80.3     512
80.32    474
80.34    491
80.36    523
80.38    537
80.4     551
80.42    510
80.44    477
80.46    542
80.48    615
80.5     574
80.52    550
80.54    596
80.56    608
80.58    546
80.6     484
80.62    429
80.64    414
80.66    445
80.68    503
80.7     471
80.72    416
80.74    421
80.76    412
80.78    403
80.8     433
80.82    504
80.84    476
80.86    477
80.88    495
80.9     503
80.92    489
80.94    489
80.96    551
80.98    605
81.0     644
81.02    664
81.04    618
81.06    629
81.08    583
81.1     624
81.12    628
81.14    594
81.16    617
81.18    571
81.2     567
81.22    526
81.24    503
81.26    476
81.28    463
81.3     495
81.32    517
81.34    528
81.36    519
81.38    531
81.4     584
81.42    550
81.44    500
81.46    481
81.48    457
81.5     436
81.52    448
81.54    434
81.56    410
81.58    483
81.6     489
81.62    524
81.64    488
81.66    466
81.68    450
81.7     461
81.72    402
81.74    346
81.76    371
81.78    410
81.8     466
81.82    531
81.84    572
81.86    550
81.88    565
81.9     563
81.92    488
81.94    459
81.96    470
81.98    496
82.0     493
82.02    466
82.04    469
82.06    399
82.08    371
82.1     400
82.12    437
82.14    424
82.16    490
82.18    526
82.2     536
82.22    577
82.24    585
82.26    555
82.28    543
82.3     642
82.32    657
82.34    593
82.36    654
82.38    593
82.4     612
82.42    556
82.44    539
82.46    484
82.48    446
82.5     429
82.52    421
82.54    436
82.56    436
82.58    387
82.6     401
82.62    386
82.64    483
82.66    480
82.68    471
82.7     468
82.72    525
82.74    582
82.76    541
82.78    516
82.8     537
82.82    538
82.84    566
82.86    565
82.88    585
82.9     588
82.92    595
82.94    576
82.96    518
82.98    480
83.0     459
83.02    452
83.04    485
83.06    527
83.08    617
83.1     660
83.12    691
83.14    639
83.16    587
83.18    538
83.2     548
83.22    555
83.24    551
83.26    577
83.28    597
83.3     621
83.32    605
83.34    567
83.36    562
83.38    550
83.4     618
83.42    590
83.44    571
83.46    592
83.48    596
83.5     591
83.52    539
83.54    570
83.56    581
83.58    563
83.6     535
83.62    519
83.64    499
83.66    480
83.68    537
83.7     495
83.72    503
83.74    484
83.76    416
83.78    435
83.8     398
83.82    439
83.84    454
83.86    454
83.88    518
83.9     530
83.92    578
83.94    462
83.96    432
83.98    464
84.0     498
84.02    536
84.04    483
84.06    466
84.08    489
84.1     509
84.12    512
84.14    397
84.16    366
84.18    354
84.2     458
84.22    521
84.24    486
84.26    514
84.28    572
84.3     661
84.32    597
84.34    525
84.36    502
84.38    491
84.4     579
84.42    615
84.44    616
84.46    555
84.48    527
84.5     563
84.52    452
84.54    417
84.56    412
84.58    455
84.6     531
84.62    557
84.64    569
84.66    534
84.68    530
84.7     609
84.72    672
84.74    762
84.76    830
84.78    887
84.8     851
84.82    815
84.84    689
84.86    565
84.88    512
84.9     499
84.92    510
84.94    522
84.96    559
84.98    566
85.0     506
85.02    514
85.04    451
85.06    384
85.08    421
85.1     428
85.12    413
85.14    425
85.16    473
85.18    517
85.2     482
85.22    492
85.24    519
85.26    584
85.28    636
85.3     698
85.32    728
85.34    738
85.36    685
85.38    639
85.4     561
85.42    493
85.44    475
85.46    512
85.48    493
85.5     539
85.52    513
85.54    492
85.56    448
85.58    412
85.6     444
85.62    489
85.64    512
85.66    556
85.68    554
85.7     545
85.72    487
85.74    464
85.76    432
85.78    413
85.8     426
85.82    423
85.84    426
85.86    390
85.88    317
85.9     316
85.92    315
85.94    428
85.96    535
85.98    627
86.0     726
86.02    787
86.04    801
86.06    745
86.08    670
86.1     618
86.12    607
86.14    679
86.16    682
86.18    731
86.2     773
86.22    746
86.24    697
86.26    645
86.28    601
86.3     574
86.32    590
86.34    687
86.36    858
86.38    1038
86.4     1181
86.42    1296
86.44    1441
86.46    1520
86.48    1546
86.5     1508
86.52    1452
86.54    1449
86.56    1379
86.58    1294
86.6     1192
86.62    1091
86.64    1043
86.66    982
86.68    894
86.7     787
86.72    687
86.74    621
86.76    539
86.78    529
86.8     526
86.82    598
86.84    668
86.86    678
86.88    653
86.9     609
86.92    576
86.94    604
86.96    662
86.98    664
87.0     701
87.02    698
87.04    666
87.06    584
87.08    539
87.1     475
87.12    458
87.14    500
87.16    608
87.18    585
87.2     529
87.22    492
87.24    470
87.26    465
87.28    495
87.3     452
87.32    446
87.34    494
87.36    605
87.38    609
87.4     593
87.42    602
87.44    600
87.46    587
87.48    631
87.5     605
87.52    571
87.54    569
87.56    597
87.58    589
87.6     571
87.62    515
87.64    499
87.66    455
87.68    500
87.7     519
87.72    497
87.74    501
87.76    490
87.78    507
87.8     482
87.82    432
87.84    441
87.86    447
87.88    486
87.9     515
87.92    523
87.94    594
87.96    623
87.98    665
88.0     609
88.02    597
88.04    653
88.06    605
88.08    573
88.1     547
88.12    483
88.14    449
88.16    388
88.18    356
88.2     328
88.22    329
88.24    413
88.26    439
88.28    536
88.3     623
88.32    604
88.34    634
88.36    595
88.38    553
88.4     559
88.42    532
88.44    541
88.46    529
88.48    563
88.5     562
88.52    543
88.54    544
88.56    460
88.58    416
88.6     438
88.62    450
88.64    476
88.66    528
88.68    554
88.7     574
88.72    606
88.74    588
88.76    548
88.78    456
88.8     437
88.82    467
88.84    500
88.86    601
88.88    662
88.9     705
88.92    748
88.94    700
88.96    619
88.98    485
89.0     459
89.02    439
89.04    436
89.06    488
89.08    532
89.1     499
89.12    506
89.14    461
89.16    420
89.18    358
89.2     297
89.22    281
89.24    371
89.26    449
89.28    473
89.3     469
89.32    459
89.34    445
89.36    426
89.38    387
89.4     337
89.42    340
89.44    467
89.46    552
89.48    562
89.5     567
89.52    526
89.54    446
89.56    496
89.58    468
89.6     502
89.62    472
89.64    538
89.66    568
89.68    553
89.7     567
89.72    595
89.74    527
89.76    536
89.78    537
89.8     556
89.82    533
89.84    524
89.86    569
89.88    541
89.9     590
89.92    542
89.94    589
89.96    573
89.98    570
90.0     557
