?
5.0      1027
5.02     1027
5.04     1334
5.06     1221
5.08     1251
5.1      1196
5.12     1202
5.14     1151
5.16     1131
5.18     1131
5.2      1131
5.22     1155
5.24     1173
5.26     1164
5.28     1176
5.3      1206
5.32     1195
5.34     1182
5.36     1200
5.38     1186
5.4      1195
5.42     1185
5.44     1216
5.46     1190
5.48     1196
5.5      1201
5.52     1172
5.54     1139
5.56     1126
5.58     1106
5.6      1105
5.62     1094
5.64     1095
5.66     1027
5.68     1038
5.7      1025
5.72     1018
5.74     1028
5.76     1043
5.78     1069
5.8      1087
5.82     1102
5.84     1081
5.86     1060
5.88     1046
5.9      1031
5.92     986
5.94     1024
5.96     985
5.98     988
6.0      1015
6.02     1061
6.04     1049
6.06     1058
6.08     1035
6.1      1031
6.12     985
6.14     996
6.16     983
6.18     985
6.2      992
6.22     991
6.24     992
6.26     1030
6.28     1003
6.3      1044
6.32     1016
6.34     1004
6.36     1003
6.38     962
6.4      937
6.42     946
6.44     973
6.46     987
6.48     975
6.5      1041
6.52     1037
6.54     1001
6.56     950
6.58     899
6.6      912
6.62     884
6.64     877
6.66     877
6.68     912
6.7      941
6.72     997
6.74     949
6.76     915
6.78     945
6.8      955
6.82     921
6.84     933
6.86     903
6.88     910
6.9      881
6.92     887
6.94     853
6.96     841
6.98     897
7.0      877
7.02     940
7.04     891
7.06     872
7.08     863
7.1      839
7.12     837
7.14     865
7.16     880
7.18     915
7.2      943
7.22     978
7.24     899
7.26     882
7.28     867
7.3      866
7.32     902
7.34     931
7.36     946
7.38     984
7.4      941
7.42     925
7.44     868
7.46     851
7.48     837
7.5      859
7.52     929
7.54     935
7.56     982
7.58     1022
7.6      1003
7.62     1029
7.64     1001
7.66     992
7.68     936
7.7      951
7.72     951
7.74     896
7.76     896
7.78     927
7.8      949
7.82     924
7.84     1002
7.86     1012
7.88     1041
7.9      1086
7.92     1058
7.94     1007
7.96     1022
7.98     998
8.0      951
8.02     928
8.04     953
8.06     923
8.08     908
8.1      899
8.12     884
8.14     908
8.16     948
8.18     909
8.2      969
8.22     961
8.24     1027
8.26     1040
8.28     1024
8.3      1035
8.32     1021
8.34     1029
8.36     960
8.38     964
8.4      928
8.42     902
8.44     960
8.46     968
8.48     941
8.5      959
8.52     969
8.54     943
8.56     931
8.58     1008
8.6      918
8.62     933
8.64     967
8.66     940
8.68     923
8.7      904
8.72     936
8.74     865
8.76     901
8.78     951
8.8      908
8.82     950
8.84     1022
8.86     1032
8.88     1065
8.9      1089
8.92     1132
8.94     1111
8.96     1141
8.98     1152
9.0      1125
9.02     1116
9.04     1149
9.06     1122
9.08     1097
9.1      1077
9.12     1029
9.14     1013
9.16     997
9.18     953
9.2      918
9.22     915
9.24     929
9.26     878
9.28     878
9.3      825
9.32     866
9.34     886
9.36     897
9.38     877
9.4      910
9.42     923
9.44     882
9.46     899
9.48     885
9.5      812
9.52     824
9.54     750
9.56     759
9.58     745
9.6      761
9.62     776
9.64     776
9.66     872
9.68     904
9.7      917
9.72     917
9.74     882
9.76     902
9.78     868
9.8      837
9.82     844
9.84     810
9.86     821
9.88     826
9.9      857
9.92     843
9.94     877
9.96     903
9.98     912
10.0     898
10.02    962
10.04    945
10.06    918
10.08    913
10.1     897
10.12    855
10.14    832
10.16    826
10.18    809
10.2     831
10.22    858
10.24    869
10.26    851
10.28    876
10.3     875
10.32    906
10.34    911
10.36    965
10.38    959
10.4     966
10.42    939
10.44    924
10.46    851
10.48    824
10.5     798
10.52    828
10.54    845
10.56    857
10.58    808
10.6     818
10.62    831
10.64    847
10.66    847
10.68    874
10.7     871
10.72    930
10.74    929
10.76    903
10.78    876
10.8     852
10.82    828
10.84    832
10.86    826
10.88    848
10.9     848
10.92    885
10.94    898
10.96    903
10.98    880
11.0     883
11.02    901
11.04    896
11.06    827
11.08    790
11.1     772
11.12    754
11.14    763
11.16    727
11.18    716
11.2     772
11.22    755
11.24    748
11.26    741
11.28    752
11.3     765
11.32    796
11.34    842
11.36    808
11.38    841
11.4     859
11.42    788
11.44    788
11.46    839
11.48    793
11.5     772
11.52    777
11.54    795
11.56    748
11.58    803
11.6     781
11.62    768
11.64    817
11.66    875
11.68    839
11.7     852
11.72    868
11.74    877
11.76    864
11.78    894
11.8     828
11.82    857
11.84    876
11.86    834
11.88    773
11.9     769
11.92    753
11.94    730
11.96    741
11.98    774
12.0     744
12.02    739
12.04    769
12.06    754
12.08    776
12.1     783
12.12    779
12.14    821
12.16    817
12.18    822
12.2     843
12.22    827
12.24    823
12.26    837
12.28    832
12.3     797
12.32    813
12.34    835
12.36    810
12.38    802
12.4     818
12.42    817
12.44    783
12.46    837
12.48    816
12.5     852
12.52    879
12.54    838
12.56    812
12.58    779
12.6     715
12.62    753
12.64    758
12.66    788
12.68    798
12.7     879
12.72    877
12.74    850
12.76    851
12.78    822
12.8     772
12.82    837
12.84    860
12.86    819
12.88    829
12.9     893
12.92    868
12.94    851
12.96    832
12.98    812
13.0     799
13.02    835
13.04    885
13.06    849
13.08    863
13.1     919
13.12    872
13.14    896
13.16    935
13.18    936
13.2     889
13.22    877
13.24    869
13.26    848
13.28    850
13.3     858
13.32    834
13.34    937
13.36    955
13.38    920
13.4     889
13.42    814
13.44    807
13.46    846
13.48    803
13.5     777
13.52    777
13.54    818
13.56    834
13.58    873
13.6     917
13.62    888
13.64    958
13.66    933
13.68    843
13.7     844
13.72    847
13.74    833
13.76    847
13.78    859
13.8     901
13.82    943
13.84    960
13.86    913
13.88    845
13.9     874
13.92    905
13.94    865
13.96    840
13.98    862
14.0     864
14.02    897
14.04    887
14.06    875
14.08    833
14.1     825
14.12    898
14.14    916
14.16    938
14.18    983
14.2     924
14.22    911
14.24    918
14.26    882
14.28    863
14.3     887
14.32    922
14.34    936
14.36    955
14.38    967
14.4     916
14.42    951
14.44    965
14.46    943
14.48    906
14.5     880
14.52    850
14.54    830
14.56    773
14.58    773
14.6     821
14.62    905
14.64    853
14.66    855
14.68    875
14.7     902
14.72    936
14.74    926
14.76    910
14.78    1001
14.8     1033
14.82    1019
14.84    983
14.86    1061
14.88    1094
14.9     1130
14.92    1126
14.94    1083
14.96    1069
14.98    1083
15.0     999
15.02    961
15.04    1034
15.06    1032
15.08    992
15.1     1033
15.12    999
15.14    952
15.16    952
15.18    946
15.2     928
15.22    951
15.24    936
15.26    894
15.28    897
15.3     894
15.32    888
15.34    927
15.36    934
15.38    935
15.4     986
15.42    1048
15.44    975
15.46    939
15.48    932
15.5     936
15.52    947
15.54    877
15.56    819
15.58    826
15.6     881
15.62    900
15.64    899
15.66    923
15.68    955
15.7     997
15.72    976
15.74    937
15.76    918
15.78    917
15.8     981
15.82    1004
15.84    1036
15.86    1070
15.88    1072
15.9     1121
15.92    1214
15.94    1259
15.96    1192
15.98    1273
16.0     1438
16.02    1463
16.04    1462
16.06    1551
16.08    1634
16.1     1737
16.12    1913
16.14    2017
16.16    2137
16.18    2374
16.2     2600
16.22    2847
16.24    3155
16.26    3520
16.28    4058
16.3     4748
16.32    5655
16.34    6765
16.36    8216
16.38    9978
16.4     12158
16.42    15165
16.44    19160
16.46    24724
16.48    32566
16.5     41919
16.52    51431
16.54    58204
16.56    59864
16.58    55995
16.6     47579
16.62    36326
16.64    24091
16.66    13398
16.68    6187
16.7     2652
16.72    2125
16.74    2373
16.76    2282
16.78    2110
16.8     1974
16.82    1815
16.84    1677
16.86    1643
16.88    1594
16.9     1561
16.92    1482
16.94    1368
16.96    1387
16.98    1439
17.0     1341
17.02    1214
17.04    1174
17.06    1166
17.08    1116
17.1     1131
17.12    1034
17.14    1014
17.16    1066
17.18    1147
17.2     1126
17.22    1116
17.24    1094
17.26    1057
17.28    1012
17.3     1018
17.32    1018
17.34    1018
17.36    1004
17.38    1029
17.4     1021
17.42    1021
17.44    996
17.46    925
17.48    892
17.5     924
17.52    958
17.54    980
17.56    976
17.58    950
17.6     996
17.62    1025
17.64    992
17.66    932
17.68    852
17.7     857
17.72    890
17.74    918
17.76    860
17.78    815
17.8     809
17.82    813
17.84    845
17.86    833
17.88    809
17.9     847
17.92    894
17.94    918
17.96    891
17.98    829
18.0     781
18.02    827
18.04    841
18.06    763
18.08    707
18.1     765
18.12    792
18.14    805
18.16    828
18.18    771
18.2     749
18.22    852
18.24    850
18.26    812
18.28    777
18.3     784
18.32    827
18.34    785
18.36    754
18.38    698
18.4     654
18.42    752
18.44    787
18.46    763
18.48    686
18.5     685
18.52    746
18.54    687
18.56    659
18.58    631
18.6     619
18.62    690
18.64    725
18.66    721
18.68    704
18.7     745
18.72    680
18.74    659
18.76    686
18.78    682
18.8     704
18.82    666
18.84    726
18.86    755
18.88    722
18.9     683
18.92    638
18.94    646
18.96    637
18.98    643
19.0     671
19.02    639
19.04    678
19.06    649
19.08    625
19.1     589
19.12    564
19.14    566
19.16    628
19.18    690
19.2     713
19.22    647
19.24    645
19.26    721
19.28    726
19.3     644
19.32    622
19.34    643
19.36    687
19.38    668
19.4     636
19.42    620
19.44    676
19.46    763
19.48    729
19.5     642
19.52    583
19.54    559
19.56    563
19.58    591
19.6     595
19.62    613
19.64    616
19.66    675
19.68    686
19.7     605
19.72    552
19.74    588
19.76    651
19.78    685
19.8     661
19.82    575
19.84    539
19.86    557
19.88    542
19.9     475
19.92    464
19.94    474
19.96    536
19.98    552
20.0     578
20.02    488
20.04    470
20.06    535
20.08    582
20.1     558
20.12    514
20.14    485
20.16    507
20.18    540
20.2     544
20.22    450
20.24    445
20.26    484
20.28    552
20.3     550
20.32    550
20.34    568
20.36    631
20.38    627
20.4     581
20.42    541
20.44    523
20.46    506
20.48    555
20.5     596
20.52    617
20.54    706
20.56    714
20.58    639
20.6     632
20.62    623
20.64    617
20.66    665
20.68    685
20.7     677
20.72    650
20.74    667
20.76    587
20.78    563
20.8     556
20.82    574
20.84    612
20.86    684
20.88    677
20.9     662
20.92    623
20.94    563
20.96    494
20.98    506
21.0     445
21.02    417
21.04    426
21.06    468
21.08    519
21.1     567
21.12    522
21.14    495
21.16    478
21.18    514
21.2     475
21.22    478
21.24    565
21.26    608
21.28    662
21.3     622
21.32    545
21.34    555
21.36    507
21.38    459
21.4     398
21.42    379
21.44    435
21.46    454
21.48    465
21.5     450
21.52    475
21.54    533
21.56    516
21.58    507
21.6     492
21.62    513
21.64    569
21.66    586
21.68    548
21.7     505
21.72    528
21.74    577
21.76    568
21.78    524
21.8     451
21.82    475
21.84    432
21.86    401
21.88    347
21.9     327
21.92    392
21.94    440
21.96    413
21.98    398
22.0     393
22.02    433
22.04    358
22.06    330
22.08    287
22.1     365
22.12    365
22.14    403
22.16    346
22.18    406
22.2     400
22.22    412
22.24    359
22.26    280
22.28    264
22.3     326
22.32    322
22.34    331
22.36    270
22.38    348
22.4     435
22.42    510
22.44    508
22.46    456
22.48    476
22.5     528
22.52    527
22.54    473
22.56    457
22.58    465
22.6     576
22.62    579
22.64    548
22.66    427
22.68    411
22.7     401
22.72    415
22.74    376
22.76    389
22.78    406
22.8     498
22.82    499
22.84    434
22.86    354
22.88    379
22.9     391
22.92    442
22.94    404
22.96    379
22.98    358
23.0     363
23.02    363
23.04    337
23.06    364
23.08    366
23.1     417
23.12    441
23.14    415
23.16    382
23.18    381
23.2     394
23.22    422
23.24    427
23.26    401
23.28    339
23.3     313
23.32    312
23.34    368
23.36    439
23.38    502
23.4     525
23.42    549
23.44    539
23.46    507
23.48    489
23.5     370
23.52    324
23.54    301
23.56    330
23.58    336
23.6     306
23.62    300
23.64    250
23.66    329
23.68    393
23.7     382
23.72    362
23.74    351
23.76    430
23.78    457
23.8     441
23.82    403
23.84    363
23.86    428
23.88    407
23.9     389
23.92    338
23.94    325
23.96    314
23.98    286
24.0     286
24.02    282
24.04    357
24.06    350
24.08    337
24.1     352
24.12    402
24.14    398
24.16    332
24.18    296
24.2     290
24.22    283
24.24    302
24.26    256
24.28    268
24.3     307
24.32    373
24.34    385
24.36    370
24.38    381
24.4     344
24.42    376
24.44    404
24.46    396
24.48    382
24.5     340
24.52    346
24.54    366
24.56    403
24.58    395
24.6     343
24.62    325
24.64    351
24.66    343
24.68    322
24.7     278
24.72    315
24.74    318
24.76    376
24.78    363
24.8     330
24.82    283
24.84    290
24.86    259
24.88    265
24.9     296
24.92    312
24.94    273
24.96    298
24.98    295
25.0     319
25.02    336
25.04    334
25.06    334
25.08    383
25.1     400
25.12    425
25.14    401
25.16    377
25.18    347
25.2     361
25.22    295
25.24    277
25.26    286
25.28    325
25.3     334
25.32    318
25.34    307
25.36    259
25.38    288
25.4     277
25.42    265
25.44    303
25.46    323
25.48    338
25.5     335
25.52    311
25.54    253
25.56    211
25.58    269
25.6     325
25.62    408
25.64    441
25.66    413
25.68    364
25.7     340
25.72    366
25.74    261
25.76    267
25.78    238
25.8     248
25.82    269
25.84    280
25.86    252
25.88    211
25.9     242
25.92    304
25.94    328
25.96    372
25.98    361
26.0     343
26.02    313
26.04    234
26.06    176
26.08    149
26.1     233
26.12    277
26.14    336
26.16    342
26.18    408
26.2     401
26.22    396
26.24    348
26.26    329
26.28    305
26.3     345
26.32    287
26.34    215
26.36    200
26.38    266
26.4     291
26.42    301
26.44    303
26.46    314
26.48    306
26.5     349
26.52    278
26.54    241
26.56    191
26.58    150
26.6     104
26.62    106
26.64    178
26.66    219
26.68    291
26.7     320
26.72    323
26.74    341
26.76    252
26.78    199
26.8     197
26.82    250
26.84    306
26.86    320
26.88    366
26.9     345
26.92    374
26.94    391
26.96    343
26.98    340
27.0     347
27.02    312
27.04    275
27.06    296
27.08    299
27.1     264
27.12    223
27.14    211
27.16    206
27.18    246
27.2     269
27.22    229
27.24    219
27.26    268
27.28    299
27.3     298
27.32    275
27.34    224
27.36    185
27.38    230
27.4     215
27.42    223
27.44    183
27.46    144
27.48    152
27.5     113
27.52    148
27.54    123
27.56    207
27.58    303
27.6     293
27.62    306
27.64    231
27.66    150
27.68    180
27.7     185
27.72    238
27.74    273
27.76    292
27.78    299
27.8     314
27.82    324
27.84    338
27.86    333
27.88    368
27.9     324
27.92    288
27.94    283
27.96    232
27.98    222
28.0     208
28.02    205
28.04    188
28.06    172
28.08    187
28.1     229
28.12    304
28.14    387
28.16    399
28.18    332
28.2     264
28.22    205
28.24    165
28.26    129
28.28    131
28.3     178
28.32    170
28.34    179
28.36    164
28.38    157
28.4     182
28.42    232
28.44    297
28.46    284
28.48    299
28.5     276
28.52    253
28.54    275
28.56    284
28.58    255
28.6     267
28.62    298
28.64    235
28.66    230
28.68    212
28.7     175
28.72    223
28.74    287
28.76    347
28.78    338
28.8     365
28.82    373
28.84    310
28.86    364
28.88    334
28.9     303
28.92    286
28.94    291
28.96    250
28.98    259
29.0     254
29.02    263
29.04    252
29.06    285
29.08    290
29.1     314
29.12    299
29.14    314
29.16    261
29.18    325
29.2     333
29.22    286
29.24    250
29.26    205
29.28    207
29.3     258
29.32    282
29.34    340
29.36    327
29.38    355
29.4     286
29.42    175
29.44    133
29.46    78
29.48    106
29.5     234
29.52    275
29.54    313
29.56    268
29.58    249
29.6     185
29.62    206
29.64    208
29.66    191
29.68    254
29.7     284
29.72    219
29.74    214
29.76    163
29.78    192
29.8     240
29.82    279
29.84    222
29.86    180
29.88    223
29.9     212
29.92    204
29.94    248
29.96    202
29.98    187
30.0     227
30.02    238
30.04    252
30.06    323
30.08    383
30.1     394
30.12    325
30.14    274
30.16    172
30.18    144
30.2     257
30.22    342
30.24    438
30.26    470
30.28    409
30.3     349
30.32    262
30.34    227
30.36    190
30.38    223
30.4     298
30.42    293
30.44    305
30.46    256
30.48    212
30.5     189
30.52    133
30.54    85
30.56    79
30.58    82
30.6     153
30.62    244
30.64    298
30.66    329
30.68    336
30.7     305
30.72    235
30.74    209
30.76    165
30.78    164
30.8     209
30.82    245
30.84    261
30.86    268
30.88    277
30.9     321
30.92    338
30.94    366
30.96    302
30.98    298
31.0     196
31.02    116
31.04    92
31.06    73
31.08    141
31.1     216
31.12    255
31.14    310
31.16    334
31.18    352
31.2     291
31.22    231
31.24    232
31.26    207
31.28    242
31.3     201
31.32    225
31.34    333
31.36    349
31.38    360
31.4     327
31.42    241
31.44    242
31.46    178
31.48    208
31.5     249
31.52    303
31.54    418
31.56    379
31.58    351
31.6     330
31.62    246
31.64    295
31.66    297
31.68    323
31.7     382
31.72    333
31.74    392
31.76    392
31.78    375
31.8     381
31.82    349
31.84    356
31.86    305
31.88    264
31.9     223
31.92    229
31.94    246
31.96    283
31.98    290
32.0     223
32.02    241
32.04    308
32.06    340
32.08    438
32.1     476
32.12    504
32.14    484
32.16    483
32.18    479
32.2     492
32.22    557
32.24    571
32.26    491
32.28    524
32.3     474
32.32    430
32.34    394
32.36    369
32.38    387
32.4     420
32.42    454
32.44    429
32.46    454
32.48    524
32.5     528
32.52    536
32.54    444
32.56    334
32.58    222
32.6     129
32.62    156
32.64    200
32.66    307
32.68    372
32.7     397
32.72    370
32.74    269
32.76    254
32.78    298
32.8     342
32.82    439
32.84    531
32.86    551
32.88    506
32.9     412
32.92    292
32.94    269
32.96    348
32.98    375
33.0     387
33.02    428
33.04    467
33.06    426
33.08    451
33.1     446
33.12    469
33.14    540
33.16    573
33.18    568
33.2     586
33.22    627
33.24    626
33.26    696
33.28    789
33.3     933
33.32    1124
33.34    1386
33.36    1805
33.38    2340
33.4     3157
33.42    4264
33.44    5705
33.46    7414
33.48    9206
33.5     11157
33.52    12697
33.54    13274
33.56    12756
33.58    11240
33.6     9116
33.62    6721
33.64    4497
33.66    2617
33.68    1442
33.7     1032
33.72    1041
33.74    950
33.76    824
33.78    718
33.8     587
33.82    516
33.84    498
33.86    475
33.88    494
33.9     507
33.92    552
33.94    501
33.96    424
33.98    409
34.0     392
34.02    394
34.04    425
34.06    425
34.08    420
34.1     363
34.12    334
34.14    254
34.16    234
34.18    272
34.2     279
34.22    340
34.24    404
34.26    391
34.28    382
34.3     343
34.32    326
34.34    306
34.36    382
34.38    382
34.4     429
34.42    480
34.44    440
34.46    391
34.48    382
34.5     351
34.52    347
34.54    420
34.56    488
34.58    427
34.6     463
34.62    451
34.64    336
34.66    314
34.68    316
34.7     311
34.72    313
34.74    350
34.76    322
34.78    268
34.8     324
34.82    345
34.84    339
34.86    443
34.88    558
34.9     657
34.92    761
34.94    857
34.96    946
34.98    1177
35.0     1582
35.02    2288
35.04    3728
35.06    5808
35.08    8009
35.1     9995
35.12    11451
35.14    12038
35.16    11635
35.18    10319
35.2     8348
35.22    6221
35.24    4397
35.26    3050
35.28    2005
35.3     1305
35.32    934
35.34    778
35.36    735
35.38    750
35.4     792
35.42    783
35.44    661
35.46    608
35.48    524
35.5     419
35.52    368
35.54    356
35.56    367
35.58    377
35.6     419
35.62    479
35.64    505
35.66    526
35.68    559
35.7     544
35.72    495
35.74    433
35.76    376
35.78    327
35.8     289
35.82    320
35.84    368
35.86    393
35.88    470
35.9     557
35.92    557
35.94    569
35.96    645
35.98    631
36.0     644
36.02    635
36.04    614
36.06    552
36.08    550
36.1     575
36.12    578
36.14    642
36.16    733
36.18    778
36.2     895
36.22    842
36.24    839
36.26    908
36.28    1137
36.3     1417
36.32    1913
36.34    2569
36.36    3445
36.38    5118
36.4     8268
36.42    12695
36.44    17695
36.46    22320
36.48    25720
36.5     27168
36.52    26286
36.54    23102
36.56    18222
36.58    13050
36.6     8705
36.62    5539
36.64    3369
36.66    2091
36.68    1508
36.7     1328
36.72    1224
36.74    1149
36.76    1044
36.78    941
36.8     798
36.82    708
36.84    601
36.86    550
36.88    601
36.9     644
36.92    674
36.94    656
36.96    663
36.98    622
37.0     575
37.02    538
37.04    529
37.06    539
37.08    623
37.1     638
37.12    669
37.14    654
37.16    632
37.18    532
37.2     527
37.22    508
37.24    550
37.26    577
37.28    647
37.3     684
37.32    797
37.34    854
37.36    863
37.38    864
37.4     903
37.42    811
37.44    790
37.46    718
37.48    631
37.5     537
37.52    532
37.54    444
37.56    386
37.58    381
37.6     409
37.62    365
37.64    351
37.66    329
37.68    321
37.7     347
37.72    402
37.74    430
37.76    442
37.78    507
37.8     522
37.82    485
37.84    491
37.86    495
37.88    460
37.9     515
37.92    460
37.94    443
37.96    356
37.98    378
38.0     297
38.02    308
38.04    338
38.06    348
38.08    295
38.1     330
38.12    271
38.14    252
38.16    266
38.18    317
38.2     314
38.22    382
38.24    390
38.26    391
38.28    333
38.3     276
38.32    252
38.34    244
38.36    283
38.38    306
38.4     363
38.42    374
38.44    371
38.46    344
38.48    328
38.5     256
38.52    279
38.54    322
38.56    428
38.58    475
38.6     507
38.62    423
38.64    340
38.66    236
38.68    139
38.7     93
38.72    192
38.74    282
38.76    458
38.78    566
38.8     636
38.82    603
38.84    523
38.86    365
38.88    248
38.9     136
38.92    117
38.94    143
38.96    260
38.98    386
39.0     495
39.02    536
39.04    529
39.06    441
39.08    379
39.1     253
39.12    204
39.14    186
39.16    192
39.18    233
39.2     274
39.22    296
39.24    323
39.26    293
39.28    257
39.3     273
39.32    268
39.34    219
39.36    276
39.38    375
39.4     418
39.42    427
39.44    475
39.46    466
39.48    453
39.5     430
39.52    433
39.54    358
39.56    376
39.58    377
39.6     337
39.62    292
39.64    357
39.66    388
39.68    398
39.7     417
39.72    485
39.74    381
39.76    283
39.78    245
39.8     200
39.82    150
39.84    189
39.86    271
39.88    358
39.9     451
39.92    561
39.94    548
39.96    485
39.98    484
40.0     495
40.02    472
40.04    499
40.06    595
40.08    647
40.1     679
40.12    718
40.14    686
40.16    580
40.18    542
40.2     551
40.22    511
40.24    538
40.26    617
40.28    668
40.3     714
40.32    725
40.34    728
40.36    700
40.38    688
40.4     680
40.42    645
40.44    640
40.46    666
40.48    663
40.5     664
40.52    674
40.54    686
40.56    655
40.58    651
40.6     661
40.62    628
40.64    632
40.66    656
40.68    645
40.7     679
40.72    706
40.74    691
40.76    710
40.78    767
40.8     780
40.82    758
40.84    793
40.86    777
40.88    718
40.9     711
40.92    792
40.94    795
40.96    861
40.98    944
41.0     972
41.02    967
41.04    1016
41.06    1117
41.08    1142
41.1     1299
41.12    1447
41.14    1520
41.16    1585
41.18    1684
41.2     1720
41.22    1789
41.24    1989
41.26    2323
41.28    2666
41.3     3207
41.32    3785
41.34    4542
41.36    5473
41.38    6742
41.4     8498
41.42    11274
41.44    16093
41.46    25487
41.48    41675
41.5     62656
41.52    83118
41.54    97758
41.56    103281
41.58    99037
41.6     85923
41.62    66267
41.64    44400
41.66    26043
41.68    14751
41.7     9288
41.72    6771
41.74    5212
41.76    3909
41.78    3129
41.8     2707
41.82    2437
41.84    2284
41.86    2306
41.88    2242
41.9     2048
41.92    1782
41.94    1604
41.96    1414
41.98    1216
42.0     1118
42.02    1127
42.04    1101
42.06    1139
42.08    1093
42.1     1091
42.12    967
42.14    901
42.16    820
42.18    764
42.2     788
42.22    793
42.24    786
42.26    773
42.28    743
42.3     687
42.32    601
42.34    564
42.36    536
42.38    530
42.4     641
42.42    707
42.44    751
42.46    824
42.48    846
42.5     747
42.52    697
42.54    630
42.56    598
42.58    540
42.6     649
42.62    666
42.64    697
42.66    761
42.68    733
42.7     701
42.72    652
42.74    618
42.76    538
42.78    525
42.8     574
42.82    565
42.84    586
42.86    663
42.88    724
42.9     735
42.92    649
42.94    579
42.96    478
42.98    437
43.0     422
43.02    519
43.04    622
43.06    728
43.08    796
43.1     789
43.12    757
43.14    735
43.16    729
43.18    624
43.2     658
43.22    708
43.24    702
43.26    667
43.28    649
43.3     735
43.32    718
43.34    728
43.36    676
43.38    630
43.4     614
43.42    559
43.44    499
43.46    435
43.48    452
43.5     500
43.52    492
43.54    495
43.56    485
43.58    507
43.6     488
43.62    483
43.64    496
43.66    511
43.68    566
43.7     541
43.72    629
43.74    561
43.76    475
43.78    423
43.8     417
43.82    415
43.84    420
43.86    477
43.88    519
43.9     538
43.92    578
43.94    514
43.96    465
43.98    416
44.0     391
44.02    283
44.04    262
44.06    302
44.08    288
44.1     338
44.12    423
44.14    573
44.16    677
44.18    661
44.2     665
44.22    590
44.24    543
44.26    389
44.28    230
44.3     239
44.32    242
44.34    308
44.36    349
44.38    418
44.4     504
44.42    560
44.44    550
44.46    491
44.48    460
44.5     472
44.52    416
44.54    369
44.56    356
44.58    386
44.6     401
44.62    387
44.64    361
44.66    359
44.68    394
44.7     368
44.72    396
44.74    400
44.76    487
44.78    554
44.8     562
44.82    569
44.84    574
44.86    612
44.88    605
44.9     600
44.92    734
44.94    897
44.96    1209
44.98    1571
45.0     1958
45.02    2225
45.04    2309
45.06    2279
45.08    2060
45.1     1717
45.12    1368
45.14    1067
45.16    872
45.18    765
45.2     708
45.22    621
45.24    507
45.26    492
45.28    460
45.3     383
45.32    380
45.34    473
45.36    474
45.38    454
45.4     449
45.42    411
45.44    366
45.46    385
45.48    369
45.5     370
45.52    433
45.54    534
45.56    531
45.58    521
45.6     545
45.62    468
45.64    417
45.66    330
45.68    268
45.7     237
45.72    235
45.74    340
45.76    403
45.78    501
45.8     566
45.82    556
45.84    515
45.86    433
45.88    352
45.9     295
45.92    201
45.94    212
45.96    236
45.98    288
46.0     313
46.02    347
46.04    389
46.06    363
46.08    359
46.1     384
46.12    389
46.14    382
46.16    413
46.18    407
46.2     473
46.22    494
46.24    467
46.26    465
46.28    440
46.3     433
46.32    423
46.34    342
46.36    320
46.38    248
46.4     249
46.42    232
46.44    241
46.46    365
46.48    365
46.5     439
46.52    450
46.54    440
46.56    419
46.58    342
46.6     288
46.62    243
46.64    262
46.66    338
46.68    333
46.7     399
46.72    439
46.74    449
46.76    462
46.78    424
46.8     381
46.82    386
46.84    379
46.86    399
46.88    350
46.9     384
46.92    386
46.94    303
46.96    280
46.98    239
47.0     251
47.02    315
47.04    316
47.06    398
47.08    444
47.1     516
47.12    510
47.14    481
47.16    503
47.18    478
47.2     440
47.22    377
47.24    392
47.26    425
47.28    410
47.3     400
47.32    396
47.34    426
47.36    469
47.38    425
47.4     351
47.42    335
47.44    384
47.46    391
47.48    308
47.5     277
47.52    290
47.54    284
47.56    309
47.58    264
47.6     324
47.62    460
47.64    531
47.66    564
47.68    515
47.7     497
47.72    487
47.74    383
47.76    308
47.78    253
47.8     328
47.82    309
47.84    307
47.86    322
47.88    366
47.9     401
47.92    448
47.94    434
47.96    471
47.98    503
48.0     522
48.02    496
48.04    473
48.06    444
48.08    378
48.1     349
48.12    306
48.14    275
48.16    274
48.18    310
48.2     381
48.22    443
48.24    441
48.26    453
48.28    405
48.3     403
48.32    345
48.34    309
48.36    304
48.38    344
48.4     327
48.42    300
48.44    322
48.46    390
48.48    418
48.5     388
48.52    391
48.54    400
48.56    453
48.58    448
48.6     435
48.62    443
48.64    437
48.66    467
48.68    412
48.7     343
48.72    322
48.74    304
48.76    305
48.78    304
48.8     348
48.82    398
48.84    385
48.86    402
48.88    391
48.9     428
48.92    437
48.94    389
48.96    317
48.98    320
49.0     350
49.02    353
49.04    292
49.06    263
49.08    328
49.1     349
49.12    338
49.14    304
49.16    288
49.18    357
49.2     414
49.22    391
49.24    407
49.26    421
49.28    492
49.3     466
49.32    458
49.34    470
49.36    431
49.38    425
49.4     423
49.42    349
49.44    360
49.46    310
49.48    277
49.5     248
49.52    319
49.54    332
49.56    381
49.58    430
49.6     476
49.62    442
49.64    425
49.66    335
49.68    259
49.7     179
49.72    192
49.74    140
49.76    184
49.78    258
49.8     283
49.82    364
49.84    416
49.86    468
49.88    479
49.9     435
49.92    412
49.94    346
49.96    282
49.98    202
50.0     159
50.02    223
50.04    249
50.06    315
50.08    337
50.1     383
50.12    408
50.14    394
50.16    354
50.18    266
50.2     243
50.22    219
50.24    204
50.26    203
50.28    224
50.3     310
50.32    371
50.34    458
50.36    496
50.38    494
50.4     422
50.42    351
50.44    275
50.46    193
50.48    126
50.5     134
50.52    168
50.54    274
50.56    402
50.58    495
50.6     517
50.62    571
50.64    600
50.66    572
50.68    485
50.7     415
50.72    309
50.74    291
50.76    291
50.78    293
50.8     276
50.82    359
50.84    455
50.86    523
50.88    555
50.9     537
50.92    481
50.94    472
50.96    372
50.98    331
51.0     246
51.02    251
51.04    215
51.06    226
51.08    282
51.1     413
51.12    469
51.14    523
51.16    482
51.18    529
51.2     482
51.22    389
51.24    270
51.26    258
51.28    298
51.3     379
51.32    364
51.34    381
51.36    376
51.38    438
51.4     393
51.42    367
51.44    372
51.46    448
51.48    465
51.5     472
51.52    484
51.54    473
51.56    407
51.58    375
51.6     284
51.62    252
51.64    277
51.66    368
51.68    422
51.7     480
51.72    534
51.74    555
51.76    491
51.78    402
51.8     278
51.82    256
51.84    226
51.86    255
51.88    320
51.9     378
51.92    417
51.94    513
51.96    507
51.98    491
52.0     466
52.02    434
52.04    343
52.06    349
52.08    339
52.1     371
52.12    361
52.14    460
52.16    488
52.18    566
52.2     604
52.22    603
52.24    551
52.26    525
52.28    428
52.3     427
52.32    386
52.34    363
52.36    349
52.38    379
52.4     436
52.42    468
52.44    462
52.46    422
52.48    425
52.5     441
52.52    414
52.54    370
52.56    412
52.58    443
52.6     518
52.62    519
52.64    539
52.66    481
52.68    470
52.7     376
52.72    326
52.74    246
52.76    287
52.78    294
52.8     369
52.82    346
52.84    412
52.86    444
52.88    514
52.9     531
52.92    584
52.94    578
52.96    668
52.98    654
53.0     605
53.02    482
53.04    431
53.06    418
53.08    386
53.1     380
53.12    422
53.14    494
53.16    633
53.18    793
53.2     895
53.22    1045
53.24    1147
53.26    1278
53.28    1386
53.3     1488
53.32    1631
53.34    2005
53.36    2767
53.38    4233
53.4     6244
53.42    8292
53.44    9851
53.46    10583
53.48    10380
53.5     9161
53.52    7313
53.54    5183
53.56    3259
53.58    2032
53.6     1430
53.62    1105
53.64    957
53.66    855
53.68    794
53.7     679
53.72    667
53.74    617
53.76    623
53.78    610
53.8     599
53.82    625
53.84    666
53.86    734
53.88    688
53.9     657
53.92    603
53.94    530
53.96    490
53.98    391
54.0     362
54.02    357
54.04    359
54.06    396
54.08    355
54.1     381
54.12    441
54.14    510
54.16    528
54.18    541
54.2     512
54.22    488
54.24    512
54.26    463
54.28    345
54.3     267
54.32    283
54.34    302
54.36    317
54.38    358
54.4     342
54.42    484
54.44    572
54.46    594
54.48    577
54.5     567
54.52    512
54.54    440
54.56    308
54.58    204
54.6     117
54.62    140
54.64    128
54.66    191
54.68    266
54.7     375
54.72    477
54.74    503
54.76    601
54.78    602
54.8     588
54.82    528
54.84    490
54.86    426
54.88    376
54.9     317
54.92    245
54.94    165
54.96    167
54.98    106
55.0     164
55.02    207
55.04    292
55.06    333
55.08    406
55.1     414
55.12    397
55.14    375
55.16    340
55.18    355
55.2     389
55.22    390
55.24    340
55.26    295
55.28    317
55.3     333
55.32    364
55.34    332
55.36    359
55.38    382
55.4     411
55.42    384
55.44    348
55.46    331
55.48    386
55.5     431
55.52    462
55.54    461
55.56    475
55.58    520
55.6     588
55.62    552
55.64    493
55.66    405
55.68    370
55.7     337
55.72    320
55.74    277
55.76    254
55.78    360
55.8     504
55.82    579
55.84    588
55.86    585
55.88    563
55.9     502
55.92    393
55.94    247
55.96    136
55.98    99
56.0     160
56.02    195
56.04    268
56.06    407
56.08    518
56.1     581
56.12    676
56.14    669
56.16    618
56.18    515
56.2     467
56.22    374
56.24    306
56.26    292
56.28    264
56.3     240
56.32    320
56.34    298
56.36    318
56.38    371
56.4     481
56.42    509
56.44    525
56.46    543
56.48    560
56.5     514
56.52    518
56.54    451
56.56    449
56.58    449
56.6     468
56.62    413
56.64    417
56.66    438
56.68    445
56.7     435
56.72    527
56.74    589
56.76    596
56.78    544
56.8     525
56.82    485
56.84    442
56.86    377
56.88    227
56.9     212
56.92    267
56.94    321
56.96    381
56.98    435
57.0     520
57.02    596
57.04    644
57.06    630
57.08    531
57.1     481
57.12    377
57.14    375
57.16    408
57.18    426
57.2     420
57.22    488
57.24    551
57.26    529
57.28    573
57.3     524
57.32    475
57.34    503
57.36    498
57.38    460
57.4     386
57.42    433
57.44    426
57.46    443
57.48    506
57.5     525
57.52    578
57.54    611
57.56    571
57.58    479
57.6     421
57.62    401
57.64    394
57.66    427
57.68    402
57.7     478
57.72    565
57.74    606
57.76    650
57.78    700
57.8     719
57.82    714
57.84    791
57.86    872
57.88    858
57.9     970
57.92    1027
57.94    1085
57.96    1152
57.98    1257
58.0     1309
58.02    1457
58.04    1627
58.06    1769
58.08    2087
58.1     2531
58.12    3119
58.14    4151
58.16    5708
58.18    8337
58.2     11982
58.22    16239
58.24    20040
58.26    22563
58.28    23340
58.3     21964
58.32    18924
58.34    14754
58.36    10308
58.38    6664
58.4     4245
58.42    2969
58.44    2335
58.46    1978
58.48    1740
58.5     1540
58.52    1407
58.54    1263
58.56    1156
58.58    1010
58.6     949
58.62    908
58.64    811
58.66    770
58.68    784
58.7     720
58.72    743
58.74    765
58.76    765
58.78    668
58.8     626
58.82    565
58.84    502
58.86    603
58.88    624
58.9     570
58.92    593
58.94    633
58.96    667
58.98    654
59.0     611
59.02    498
59.04    414
59.06    448
59.08    370
59.1     319
59.12    228
59.14    229
59.16    243
59.18    332
59.2     401
59.22    373
59.24    416
59.26    501
59.28    556
59.3     606
59.32    597
59.34    558
59.36    524
59.38    505
59.4     445
59.42    321
59.44    262
59.46    240
59.48    230
59.5     246
59.52    301
59.54    296
59.56    352
59.58    369
59.6     375
59.62    361
59.64    397
59.66    423
59.68    443
59.7     486
59.72    532
59.74    518
59.76    541
59.78    540
59.8     527
59.82    512
59.84    488
59.86    453
59.88    461
59.9     481
59.92    475
59.94    451
59.96    449
59.98    477
60.0     459
60.02    471
60.04    453
60.06    385
60.08    349
60.1     361
60.12    345
60.14    345
60.16    379
60.18    406
60.2     396
60.22    465
60.24    471
60.26    435
60.28    361
60.3     365
60.32    320
60.34    353
60.36    407
60.38    389
60.4     416
60.42    430
60.44    477
60.46    491
60.48    424
60.5     414
60.52    344
60.54    411
60.56    435
60.58    383
60.6     368
60.62    354
60.64    413
60.66    430
60.68    426
60.7     405
60.72    366
60.74    444
60.76    447
60.78    411
60.8     391
60.82    395
60.84    389
60.86    403
60.88    408
60.9     434
60.92    427
60.94    445
60.96    435
60.98    412
61.0     440
61.02    449
61.04    406
61.06    431
61.08    479
61.1     500
61.12    455
61.14    499
61.16    464
61.18    448
61.2     485
61.22    463
61.24    402
61.26    395
61.28    402
61.3     385
61.32    431
61.34    531
61.36    513
61.38    584
61.4     575
61.42    561
61.44    596
61.46    530
61.48    552
61.5     529
61.52    558
61.54    553
61.56    555
61.58    557
61.6     475
61.62    486
61.64    502
61.66    447
61.68    483
61.7     470
61.72    555
61.74    580
61.76    665
61.78    710
61.8     765
61.82    768
61.84    734
61.86    809
61.88    850
61.9     951
61.92    1138
61.94    1266
61.96    1473
61.98    1701
62.0     2061
62.02    2587
62.04    3740
62.06    5818
62.08    8338
62.1     11015
62.12    13447
62.14    15284
62.16    16333
62.18    16446
62.2     15753
62.22    14508
62.24    13154
62.26    12015
62.28    10743
62.3     9416
62.32    8040
62.34    6634
62.36    5293
62.38    4192
62.4     3273
62.42    2546
62.44    1981
62.46    1633
62.48    1348
62.5     1228
62.52    1080
62.54    906
62.56    759
62.58    730
62.6     643
62.62    620
62.64    613
62.66    616
62.68    652
62.7     701
62.72    746
62.74    722
62.76    663
62.78    627
62.8     590
62.82    614
62.84    568
62.86    534
62.88    515
62.9     483
62.92    530
62.94    542
62.96    557
62.98    578
63.0     615
63.02    622
63.04    596
63.06    616
63.08    615
63.1     567
63.12    553
63.14    515
63.16    473
63.18    459
63.2     491
63.22    447
63.24    414
63.26    476
63.28    516
63.3     517
63.32    454
63.34    419
63.36    366
63.38    342
63.4     370
63.42    310
63.44    256
63.46    272
63.48    326
63.5     366
63.52    401
63.54    477
63.56    471
63.58    483
63.6     502
63.62    461
63.64    421
63.66    369
63.68    386
63.7     398
63.72    418
63.74    486
63.76    506
63.78    455
63.8     486
63.82    461
63.84    481
63.86    442
63.88    450
63.9     416
63.92    346
63.94    404
63.96    331
63.98    248
64.0     310
64.02    287
64.04    355
64.06    356
64.08    376
64.1     374
64.12    389
64.14    513
64.16    497
64.18    452
64.2     470
64.22    443
64.24    416
64.26    424
64.28    386
64.3     335
64.32    319
64.34    379
64.36    370
64.38    375
64.4     410
64.42    489
64.44    514
64.46    565
64.48    582
64.5     574
64.52    589
64.54    546
64.56    569
64.58    674
64.6     694
64.62    776
64.64    744
64.66    785
64.68    894
64.7     1044
64.72    1461
64.74    2012
64.76    2721
64.78    3482
64.8     4083
64.82    4595
64.84    4776
64.86    4751
64.88    4529
64.9     4150
64.92    3827
64.94    3491
64.96    3096
64.98    2703
65.0     2299
65.02    1942
65.04    1618
65.06    1331
65.08    1061
65.1     894
65.12    756
65.14    713
65.16    633
65.18    588
65.2     516
65.22    476
65.24    479
65.26    454
65.28    369
65.3     417
65.32    371
65.34    432
65.36    449
65.38    514
65.4     493
65.42    509
65.44    471
65.46    495
65.48    456
65.5     434
65.52    384
65.54    399
65.56    412
65.58    436
65.6     360
65.62    325
65.64    305
65.66    328
65.68    317
65.7     372
65.72    421
65.74    436
65.76    464
65.78    465
65.8     408
65.82    396
65.84    399
65.86    419
65.88    383
65.9     402
65.92    433
65.94    432
65.96    435
65.98    454
66.0     460
66.02    457
66.04    376
66.06    413
66.08    360
66.1     346
66.12    326
66.14    327
66.16    331
66.18    415
66.2     455
66.22    487
66.24    435
66.26    434
66.28    412
66.3     350
66.32    341
66.34    344
66.36    405
66.38    430
66.4     429
66.42    435
66.44    409
66.46    372
66.48    393
66.5     347
66.52    319
66.54    332
66.56    379
66.58    365
66.6     432
66.62    499
66.64    512
66.66    567
66.68    575
66.7     534
66.72    424
66.74    386
66.76    322
66.78    265
66.8     313
66.82    337
66.84    346
66.86    411
66.88    459
66.9     512
66.92    513
66.94    471
66.96    442
66.98    381
67.0     368
67.02    314
67.04    284
67.06    196
67.08    150
67.1     92
67.12    82
67.14    124
67.16    184
67.18    256
67.2     290
67.22    417
67.24    467
67.26    488
67.28    487
67.3     469
67.32    438
67.34    392
67.36    318
67.38    254
67.4     185
67.42    263
67.44    309
67.46    333
67.48    368
67.5     451
67.52    469
67.54    481
67.56    478
67.58    450
67.6     427
67.62    432
67.64    473
67.66    412
67.68    402
67.7     390
67.72    360
67.74    388
67.76    367
67.78    333
67.8     348
67.82    383
67.84    437
67.86    480
67.88    514
67.9     521
67.92    547
67.94    560
67.96    561
67.98    499
68.0     514
68.02    517
68.04    505
68.06    509
68.08    501
68.1     461
68.12    412
68.14    351
68.16    349
68.18    315
68.2     297
68.22    287
68.24    285
68.26    269
68.28    246
68.3     201
68.32    156
68.34    199
68.36    245
68.38    347
68.4     396
68.42    444
68.44    499
68.46    550
68.48    593
68.5     585
68.52    532
68.54    477
68.56    436
68.58    448
68.6     435
68.62    424
68.64    488
68.66    526
68.68    616
68.7     627
68.72    674
68.74    742
68.76    918
68.78    1095
68.8     1298
68.82    1650
68.84    2094
68.86    2617
68.88    3258
68.9     3866
68.92    4512
68.94    5002
68.96    5349
68.98    5340
69.0     5014
69.02    4426
69.04    3626
69.06    2823
69.08    2068
69.1     1451
69.12    1077
69.14    848
69.16    783
69.18    694
69.2     662
69.22    579
69.24    517
69.26    532
69.28    487
69.3     494
69.32    487
69.34    458
69.36    443
69.38    423
69.4     444
69.42    456
69.44    526
69.46    534
69.48    512
69.5     543
69.52    516
69.54    493
69.56    469
69.58    454
69.6     415
69.62    358
69.64    319
69.66    297
69.68    382
69.7     387
69.72    440
69.74    454
69.76    487
69.78    506
69.8     515
69.82    497
69.84    498
69.86    502
69.88    467
69.9     442
69.92    444
69.94    413
69.96    399
69.98    275
70.0     246
70.02    246
70.04    286
70.06    198
70.08    237
70.1     295
70.12    355
70.14    402
70.16    468
70.18    499
70.2     546
70.22    671
70.24    739
70.26    745
70.28    816
70.3     866
70.32    965
70.34    1032
70.36    1163
70.38    1245
70.4     1315
70.42    1381
70.44    1415
70.46    1444
70.48    1513
70.5     1572
70.52    1680
70.54    1807
70.56    1954
70.58    2076
70.6     2126
70.62    2114
70.64    2008
70.66    1824
70.68    1551
70.7     1263
70.72    1007
70.74    757
70.76    571
70.78    485
70.8     444
70.82    478
70.84    441
70.86    396
70.88    376
70.9     393
70.92    363
70.94    343
70.96    346
70.98    387
71.0     424
71.02    448
71.04    420
71.06    426
71.08    415
71.1     398
71.12    388
71.14    353
71.16    278
71.18    263
71.2     219
71.22    186
71.24    131
71.26    206
71.28    266
71.3     336
71.32    403
71.34    459
71.36    501
71.38    552
71.4     558
71.42    538
71.44    523
71.46    521
71.48    424
71.5     278
71.52    170
71.54    108
71.56    58
71.58    15
71.6     88
71.62    146
71.64    238
71.66    257
71.68    288
71.7     387
71.72    483
71.74    581
71.76    641
71.78    705
71.8     767
71.82    723
71.84    713
71.86    623
71.88    555
71.9     491
71.92    398
71.94    314
71.96    225
71.98    201
72.0     167
72.02    202
72.04    250
72.06    280
72.08    347
72.1     436
72.12    505
72.14    587
72.16    633
72.18    684
72.2     716
72.22    772
72.24    751
72.26    734
72.28    722
72.3     768
72.32    781
72.34    838
72.36    891
72.38    912
72.4     1096
72.42    1414
72.44    1884
72.46    2681
72.48    3652
72.5     4678
72.52    5592
72.54    6323
72.56    6680
72.58    6597
72.6     6188
72.62    5498
72.64    4661
72.66    3899
72.68    3134
72.7     2438
72.72    1894
72.74    1459
72.76    1153
72.78    966
72.8     791
72.82    739
72.84    674
72.86    597
72.88    529
72.9     505
72.92    471
72.94    476
72.96    500
72.98    516
73.0     518
73.02    626
73.04    608
73.06    570
73.08    534
73.1     585
73.12    561
73.14    589
73.16    545
73.18    488
73.2     511
73.22    528
73.24    458
73.26    451
73.28    472
73.3     522
73.32    516
73.34    610
73.36    684
73.38    845
73.4     993
73.42    1095
73.44    1163
73.46    1226
73.48    1227
73.5     1160
73.52    1058
73.54    1014
73.56    900
73.58    886
73.6     788
73.62    763
73.64    703
73.66    674
73.68    657
73.7     682
73.72    682
73.74    695
73.76    615
73.78    625
73.8     598
73.82    631
73.84    579
73.86    530
73.88    473
73.9     398
73.92    316
73.94    302
73.96    247
73.98    336
74.0     409
74.02    508
74.04    508
74.06    490
74.08    460
74.1     525
74.12    618
74.14    760
74.16    865
74.18    1068
74.2     1282
74.22    1561
74.24    1833
74.26    2027
74.28    2253
74.3     2394
74.32    2349
74.34    2273
74.36    2150
74.38    2057
74.4     1993
74.42    1939
74.44    1882
74.46    1743
74.48    1707
74.5     1499
74.52    1321
74.54    1241
74.56    1203
74.58    1132
74.6     1021
74.62    891
74.64    890
74.66    918
74.68    1072
74.7     1177
74.72    1458
74.74    1785
74.76    2097
74.78    2281
74.8     2429
74.82    2619
74.84    2845
74.86    2863
74.88    2782
74.9     2547
74.92    2313
74.94    1918
74.96    1522
74.98    1153
75.0     941
75.02    831
75.04    744
75.06    557
75.08    460
75.1     403
75.12    370
75.14    293
75.16    310
75.18    352
75.2     433
75.22    427
75.24    425
75.26    432
75.28    470
75.3     535
75.32    540
75.34    548
75.36    576
75.38    543
75.4     505
75.42    437
75.44    425
75.46    449
75.48    394
75.5     379
75.52    317
75.54    297
75.56    278
75.58    267
75.6     309
75.62    314
75.64    386
75.66    434
75.68    401
75.7     400
75.72    411
75.74    390
75.76    385
75.78    408
75.8     426
75.82    370
75.84    426
75.86    332
75.88    262
75.9     273
75.92    336
75.94    365
75.96    432
75.98    483
76.0     505
76.02    498
76.04    536
76.06    442
76.08    414
76.1     399
76.12    372
76.14    327
76.16    298
76.18    289
76.2     270
76.22    253
76.24    306
76.26    380
76.28    441
76.3     461
76.32    445
76.34    464
76.36    429
76.38    398
76.4     371
76.42    305
76.44    342
76.46    403
76.48    358
76.5     300
76.52    332
76.54    368
76.56    358
76.58    379
76.6     429
76.62    431
76.64    505
76.66    512
76.68    475
76.7     421
76.72    417
76.74    339
76.76    301
76.78    314
76.8     326
76.82    324
76.84    342
76.86    323
76.88    335
76.9     323
76.92    341
76.94    337
76.96    409
76.98    471
77.0     433
77.02    455
77.04    491
77.06    529
77.08    533
77.1     578
77.12    573
77.14    556
77.16    556
77.18    476
77.2     444
77.22    533
77.24    612
77.26    632
77.28    664
77.3     678
77.32    718
77.34    734
77.36    802
77.38    810
77.4     935
77.42    1148
77.44    1372
77.46    1807
77.48    2445
77.5     3253
77.52    4170
77.54    4937
77.56    5571
77.58    5891
77.6     6073
77.62    5943
77.64    5670
77.66    5387
77.68    4961
77.7     4581
77.72    4149
77.74    3647
77.76    3141
77.78    2636
77.8     2230
77.82    1795
77.84    1493
77.86    1225
77.88    958
77.9     766
77.92    688
77.94    596
77.96    617
77.98    610
78.0     618
78.02    597
78.04    590
78.06    656
78.08    613
78.1     569
78.12    574
78.14    535
78.16    574
78.18    548
78.2     503
78.22    454
78.24    468
78.26    510
78.28    400
78.3     335
78.32    332
78.34    325
78.36    367
78.38    445
78.4     435
78.42    453
78.44    504
78.46    476
78.48    408
78.5     349
78.52    345
78.54    318
78.56    339
78.58    371
78.6     319
78.62    313
78.64    327
78.66    341
78.68    382
78.7     351
78.72    363
78.74    383
78.76    425
78.78    465
78.8     431
78.82    429
78.84    424
78.86    465
78.88    437
78.9     349
78.92    304
78.94    328
78.96    295
78.98    303
79.0     266
79.02    239
79.04    275
79.06    292
79.08    272
79.1     265
79.12    333
79.14    434
79.16    421
79.18    438
79.2     440
79.22    419
79.24    385
79.26    324
79.28    279
79.3     297
79.32    350
79.34    368
79.36    360
79.38    370
79.4     421
79.42    405
79.44    351
79.46    352
79.48    401
79.5     409
79.52    392
79.54    398
79.56    440
79.58    500
79.6     530
79.62    499
79.64    509
79.66    506
79.68    538
79.7     479
79.72    411
79.74    389
79.76    447
79.78    473
79.8     419
79.82    425
79.84    426
79.86    388
79.88    333
79.9     304
79.92    283
79.94    352
79.96    477
79.98    509
80.0     571
80.02    648
80.04    702
80.06    643
80.08    600
80.1     556
80.12    550
80.14    519
80.16    484
80.18    390
80.2     403
80.22    394
80.24    353
80.26    290
80.28    319
80.3     311
80.32    308
80.34    262
80.36    245
80.38    245
80.4     297
80.42    359
80.44    375
80.46    370
80.48    407
80.5     388
80.52    384
80.54    388
80.56    388
80.58    398
80.6     381
80.62    395
80.64    384
80.66    270
80.68    239
80.7     219
80.72    241
80.74    262
80.76    273
80.78    247
80.8     221
80.82    245
80.84    282
80.86    275
80.88    303
80.9     333
80.92    349
80.94    371
80.96    341
80.98    308
81.0     323
81.02    293
81.04    335
81.06    322
81.08    292
81.1     276
81.12    242
81.14    260
81.16    240
81.18    266
81.2     273
81.22    232
81.24    296
81.26    346
81.28    359
81.3     379
81.32    349
81.34    398
81.36    425
81.38    386
81.4     303
81.42    219
81.44    209
81.46    232
81.48    236
81.5     212
81.52    190
81.54    223
81.56    289
81.58    296
81.6     277
81.62    204
81.64    236
81.66    300
81.68    345
81.7     313
81.72    329
81.74    381
81.76    399
81.78    452
81.8     377
81.82    278
81.84    273
81.86    317
81.88    289
81.9     273
81.92    291
81.94    333
81.96    310
81.98    350
82.0     296
82.02    252
82.04    236
82.06    289
82.08    344
82.1     349
82.12    337
82.14    341
82.16    336
82.18    330
82.2     345
82.22    352
82.24    321
82.26    332
82.28    334
82.3     270
82.32    205
82.34    166
82.36    188
82.38    213
82.4     269
82.42    326
82.44    316
82.46    290
82.48    324
82.5     342
82.52    326
82.54    314
82.56    326
82.58    299
82.6     269
82.62    234
82.64    251
82.66    218
82.68    300
82.7     380
82.72    435
82.74    414
82.76    409
82.78    407
82.8     405
82.82    380
82.84    387
82.86    366
82.88    391
82.9     406
82.92    384
82.94    354
82.96    327
82.98    360
83.0     386
83.02    356
83.04    302
83.06    271
83.08    259
83.1     226
83.12    213
83.14    245
83.16    208
83.18    268
83.2     271
83.22    286
83.24    283
83.26    306
83.28    359
83.3     391
83.32    398
83.34    404
83.36    387
83.38    403
83.4     372
83.42    374
83.44    336
83.46    326
83.48    316
83.5     289
83.52    243
83.54    209
83.56    198
83.58    208
83.6     236
83.62    227
83.64    255
83.66    273
83.68    285
83.7     318
83.72    293
83.74    313
83.76    328
83.78    413
83.8     415
83.82    407
83.84    390
83.86    344
83.88    354
83.9     370
83.92    353
83.94    329
83.96    321
83.98    358
84.0     329
84.02    282
84.04    192
84.06    204
84.08    260
84.1     330
84.12    371
84.14    279
84.16    264
84.18    294
84.2     337
84.22    312
84.24    305
84.26    309
84.28    411
84.3     481
84.32    486
84.34    450
84.36    392
84.38    391
84.4     381
84.42    383
84.44    344
84.46    312
84.48    384
84.5     378
84.52    407
84.54    452
84.56    350
84.58    303
84.6     251
84.62    259
84.64    295
84.66    324
84.68    332
84.7     419
84.72    558
84.74    618
84.76    575
84.78    578
84.8     503
84.82    528
84.84    569
84.86    534
84.88    462
84.9     410
84.92    353
84.94    301
84.96    262
84.98    230
85.0     210
85.02    310
85.04    391
85.06    438
85.08    368
85.1     304
85.12    277
85.14    301
85.16    326
85.18    327
85.2     329
85.22    310
85.24    311
85.26    298
85.28    258
85.3     268
85.32    282
85.34    363
85.36    397
85.38    418
85.4     350
85.42    326
85.44    327
85.46    434
85.48    516
85.5     545
85.52    501
85.54    489
85.56    462
85.58    399
85.6     233
85.62    190
85.64    163
85.66    242
85.68    290
85.7     340
85.72    283
85.74    243
85.76    270
85.78    241
85.8     143
85.82    100
85.84    92
85.86    128
85.88    226
85.9     331
85.92    321
85.94    348
85.96    412
85.98    424
86.0     372
86.02    320
86.04    289
86.06    302
86.08    352
86.1     407
86.12    436
86.14    442
86.16    424
86.18    351
86.2     308
86.22    256
86.24    252
86.26    294
86.28    347
86.3     470
86.32    534
86.34    554
86.36    647
86.38    792
86.4     997
86.42    1137
86.44    1270
86.46    1364
86.48    1393
86.5     1425
86.52    1290
86.54    1171
86.56    1122
86.58    1079
86.6     1074
86.62    949
86.64    884
86.66    813
86.68    692
86.7     573
86.72    477
86.74    377
86.76    352
86.78    370
86.8     377
86.82    393
86.84    408
86.86    406
86.88    323
86.9     340
86.92    361
86.94    315
86.96    418
86.98    470
87.0     435
87.02    412
87.04    372
87.06    305
87.08    222
87.1     259
87.12    243
87.14    276
87.16    380
87.18    402
87.2     421
87.22    388
87.24    342
87.26    249
87.28    221
87.3     225
87.32    162
87.34    149
87.36    185
87.38    212
87.4     287
87.42    267
87.44    226
87.46    189
87.48    210
87.5     240
87.52    278
87.54    324
87.56    383
87.58    396
87.6     422
87.62    391
87.64    331
87.66    270
87.68    258
87.7     274
87.72    334
87.74    299
87.76    353
87.78    310
87.8     270
87.82    271
87.84    219
87.86    269
87.88    261
87.9     287
87.92    287
87.94    231
87.96    286
87.98    281
88.0     266
88.02    368
88.04    370
88.06    483
88.08    465
88.1     413
88.12    377
88.14    255
88.16    231
88.18    213
88.2     244
88.22    336
88.24    311
88.26    307
88.28    271
88.3     208
88.32    201
88.34    115
88.36    172
88.38    221
88.4     288
88.42    344
88.44    390
88.46    377
88.48    416
88.5     364
88.52    332
88.54    351
88.56    407
88.58    412
88.6     417
88.62    474
88.64    464
88.66    415
88.68    395
88.7     335
88.72    297
88.74    324
88.76    311
88.78    305
88.8     283
88.82    308
88.84    304
88.86    322
88.88    284
88.9     262
88.92    249
88.94    225
88.96    200
88.98    225
89.0     270
89.02    309
89.04    389
89.06    478
89.08    521
89.1     520
89.12    502
89.14    430
89.16    389
89.18    379
89.2     357
89.22    228
89.24    282
89.26    278
89.28    278
89.3     271
89.32    314
89.34    324
89.36    307
89.38    323
89.4     352
89.42    320
89.44    382
89.46    263
89.48    259
89.5     296
89.52    266
89.54    270
89.56    234
89.58    224
89.6     221
89.62    181
89.64    154
89.66    97
89.68    143
89.7     153
89.72    145
89.74    247
89.76    259
89.78    266
89.8     302
89.82    278
89.84    296
89.86    333
89.88    417
89.9     457
89.92    542
89.94    581
89.96    627
89.98    618
90.0     620
