?
5.0      803
5.02     803
5.04     1040
5.06     963
5.08     984
5.1      996
5.12     942
5.14     946
5.16     919
5.18     910
5.2      916
5.22     887
5.24     893
5.26     896
5.28     930
5.3      913
5.32     893
5.34     891
5.36     886
5.38     889
5.4      869
5.42     834
5.44     817
5.46     811
5.48     845
5.5      825
5.52     835
5.54     841
5.56     884
5.58     882
5.6      873
5.62     856
5.64     854
5.66     865
5.68     858
5.7      837
5.72     852
5.74     859
5.76     851
5.78     817
5.8      809
5.82     757
5.84     766
5.86     757
5.88     755
5.9      754
5.92     779
5.94     790
5.96     776
5.98     789
6.0      790
6.02     719
6.04     752
6.06     737
6.08     759
6.1      771
6.12     788
6.14     791
6.16     801
6.18     792
6.2      744
6.22     684
6.24     697
6.26     660
6.28     669
6.3      706
6.32     701
6.34     694
6.36     769
6.38     742
6.4      756
6.42     740
6.44     752
6.46     723
6.48     732
6.5      754
6.52     713
6.54     697
6.56     736
6.58     720
6.6      766
6.62     710
6.64     773
6.66     725
6.68     734
6.7      750
6.72     717
6.74     727
6.76     708
6.78     728
6.8      712
6.82     686
6.84     728
6.86     653
6.88     680
6.9      694
6.92     656
6.94     685
6.96     660
6.98     650
7.0      616
7.02     661
7.04     711
7.06     698
7.08     780
7.1      798
7.12     844
7.14     810
7.16     784
7.18     781
7.2      754
7.22     817
7.24     829
7.26     811
7.28     821
7.3      767
7.32     779
7.34     711
7.36     676
7.38     695
7.4      692
7.42     716
7.44     735
7.46     790
7.48     776
7.5      814
7.52     816
7.54     830
7.56     740
7.58     769
7.6      736
7.62     745
7.64     757
7.66     764
7.68     724
7.7      767
7.72     722
7.74     776
7.76     731
7.78     754
7.8      782
7.82     790
7.84     781
7.86     802
7.88     803
7.9      815
7.92     800
7.94     781
7.96     734
7.98     693
8.0      694
8.02     658
8.04     701
8.06     743
8.08     771
8.1      809
8.12     840
8.14     805
8.16     799
8.18     747
8.2      763
8.22     791
8.24     791
8.26     788
8.28     788
8.3      798
8.32     812
8.34     761
8.36     796
8.38     755
8.4      826
8.42     830
8.44     871
8.46     872
8.48     893
8.5      865
8.52     872
8.54     835
8.56     870
8.58     850
8.6      862
8.62     834
8.64     886
8.66     898
8.68     896
8.7      839
8.72     831
8.74     832
8.76     899
8.78     902
8.8      898
8.82     898
8.84     905
8.86     893
8.88     881
8.9      865
8.92     882
8.94     912
8.96     996
8.98     977
9.0      1027
9.02     1067
9.04     1034
9.06     1037
9.08     1035
9.1      974
9.12     980
9.14     911
9.16     900
9.18     822
9.2      843
9.22     825
9.24     768
9.26     774
9.28     749
9.3      758
9.32     846
9.34     829
9.36     802
9.38     795
9.4      778
9.42     750
9.44     722
9.46     729
9.48     731
9.5      768
9.52     798
9.54     766
9.56     720
9.58     767
9.6      736
9.62     731
9.64     730
9.66     784
9.68     829
9.7      851
9.72     857
9.74     844
9.76     840
9.78     835
9.8      773
9.82     729
9.84     727
9.86     680
9.88     696
9.9      712
9.92     727
9.94     711
9.96     761
9.98     734
10.0     750
10.02    778
10.04    752
10.06    680
10.08    716
10.1     746
10.12    701
10.14    699
10.16    730
10.18    700
10.2     726
10.22    682
10.24    613
10.26    604
10.28    622
10.3     619
10.32    618
10.34    658
10.36    661
10.38    713
10.4     762
10.42    725
10.44    733
10.46    701
10.48    644
10.5     625
10.52    644
10.54    642
10.56    640
10.58    640
10.6     704
10.62    709
10.64    745
10.66    724
10.68    715
10.7     716
10.72    730
10.74    710
10.76    681
10.78    672
10.8     717
10.82    709
10.84    778
10.86    803
10.88    780
10.9     779
10.92    781
10.94    751
10.96    764
10.98    797
11.0     782
11.02    731
11.04    788
11.06    782
11.08    794
11.1     826
11.12    843
11.14    840
11.16    878
11.18    852
11.2     830
11.22    768
11.24    793
11.26    779
11.28    788
11.3     783
11.32    800
11.34    803
11.36    799
11.38    742
11.4     780
11.42    806
11.44    826
11.46    804
11.48    832
11.5     880
11.52    877
11.54    887
11.56    845
11.58    822
11.6     879
11.62    838
11.64    832
11.66    855
11.68    901
11.7     948
11.72    958
11.74    953
11.76    932
11.78    963
11.8     945
11.82    879
11.84    947
11.86    901
11.88    853
11.9     872
11.92    855
11.94    812
11.96    789
11.98    844
12.0     866
12.02    915
12.04    990
12.06    994
12.08    1010
12.1     1011
12.12    1004
12.14    1017
12.16    1051
12.18    1132
12.2     1172
12.22    1247
12.24    1306
12.26    1346
12.28    1281
12.3     1235
12.32    1178
12.34    1133
12.36    1074
12.38    1034
12.4     973
12.42    1011
12.44    975
12.46    982
12.48    1012
12.5     1062
12.52    1047
12.54    1060
12.56    1006
12.58    1015
12.6     955
12.62    931
12.64    873
12.66    894
12.68    974
12.7     950
12.72    967
12.74    1015
12.76    994
12.78    1040
12.8     1026
12.82    1025
12.84    1010
12.86    982
12.88    977
12.9     922
12.92    904
12.94    935
12.96    894
12.98    946
13.0     997
13.02    1046
13.04    1047
13.06    1047
13.08    1079
13.1     1136
13.12    1091
13.14    1046
13.16    990
13.18    1003
13.2     1030
13.22    1037
13.24    1020
13.26    1006
13.28    1075
13.3     1089
13.32    1066
13.34    1104
13.36    1164
13.38    1175
13.4     1185
13.42    1174
13.44    1147
13.46    1138
13.48    1152
13.5     1069
13.52    1071
13.54    1167
13.56    1207
13.58    1171
13.6     1162
13.62    1173
13.64    1151
13.66    1181
13.68    1130
13.7     1053
13.72    1068
13.74    1123
13.76    1110
13.78    1114
13.8     1146
13.82    1134
13.84    1154
13.86    1204
13.88    1131
13.9     1135
13.92    1197
13.94    1152
13.96    1112
13.98    1148
14.0     1154
14.02    1147
14.04    1184
14.06    1174
14.08    1107
14.1     1155
14.12    1180
14.14    1155
14.16    1130
14.18    1136
14.2     1139
14.22    1151
14.24    1135
14.26    1119
14.28    1153
14.3     1178
14.32    1150
14.34    1170
14.36    1168
14.38    1192
14.4     1200
14.42    1207
14.44    1198
14.46    1212
14.48    1223
14.5     1161
14.52    1162
14.54    1169
14.56    1224
14.58    1247
14.6     1277
14.62    1273
14.64    1263
14.66    1287
14.68    1268
14.7     1275
14.72    1298
14.74    1249
14.76    1254
14.78    1261
14.8     1279
14.82    1285
14.84    1279
14.86    1278
14.88    1333
14.9     1410
14.92    1424
14.94    1393
14.96    1380
14.98    1422
15.0     1465
15.02    1435
15.04    1304
15.06    1254
15.08    1291
15.1     1298
15.12    1243
15.14    1148
15.16    1163
15.18    1225
15.2     1285
15.22    1288
15.24    1235
15.26    1229
15.28    1232
15.3     1271
15.32    1250
15.34    1217
15.36    1243
15.38    1291
15.4     1342
15.42    1315
15.44    1282
15.46    1212
15.48    1184
15.5     1229
15.52    1201
15.54    1164
15.56    1151
15.58    1233
15.6     1211
15.62    1161
15.64    1213
15.66    1213
15.68    1248
15.7     1320
15.72    1327
15.74    1318
15.76    1335
15.78    1396
15.8     1367
15.82    1373
15.84    1398
15.86    1472
15.88    1477
15.9     1484
15.92    1536
15.94    1580
15.96    1576
15.98    1653
16.0     1750
16.02    1760
16.04    1799
16.06    1905
16.08    1897
16.1     1954
16.12    2064
16.14    2230
16.16    2404
16.18    2633
16.2     2876
16.22    3125
16.24    3508
16.26    3899
16.28    4346
16.3     4937
16.32    5662
16.34    6661
16.36    7852
16.38    9375
16.4     11324
16.42    13955
16.44    17454
16.46    22227
16.48    28808
16.5     36978
16.52    45688
16.54    52829
16.56    56133
16.58    54668
16.6     48565
16.62    39108
16.64    28091
16.66    17683
16.68    9617
16.7     4795
16.72    2961
16.74    2705
16.76    2735
16.78    2668
16.8     2406
16.82    2195
16.84    2109
16.86    2040
16.88    1899
16.9     1831
16.92    1780
16.94    1681
16.96    1651
16.98    1623
17.0     1562
17.02    1518
17.04    1455
17.06    1416
17.08    1437
17.1     1467
17.12    1457
17.14    1394
17.16    1404
17.18    1367
17.2     1388
17.22    1355
17.24    1283
17.26    1283
17.28    1280
17.3     1245
17.32    1208
17.34    1209
17.36    1179
17.38    1205
17.4     1266
17.42    1235
17.44    1203
17.46    1193
17.48    1193
17.5     1231
17.52    1163
17.54    1136
17.56    1147
17.58    1168
17.6     1194
17.62    1156
17.64    1137
17.66    1093
17.68    1088
17.7     1107
17.72    1061
17.74    1026
17.76    1028
17.78    1016
17.8     1044
17.82    990
17.84    969
17.86    954
17.88    963
17.9     983
17.92    940
17.94    902
17.96    873
17.98    898
18.0     873
18.02    844
18.04    916
18.06    969
18.08    1005
18.1     961
18.12    917
18.14    931
18.16    826
18.18    846
18.2     906
18.22    918
18.24    971
18.26    906
18.28    817
18.3     789
18.32    860
18.34    881
18.36    798
18.38    839
18.4     931
18.42    958
18.44    934
18.46    856
18.48    811
18.5     853
18.52    866
18.54    823
18.56    780
18.58    749
18.6     752
18.62    741
18.64    724
18.66    776
18.68    819
18.7     844
18.72    885
18.74    873
18.76    886
18.78    840
18.8     802
18.82    751
18.84    759
18.86    770
18.88    733
18.9     725
18.92    791
18.94    810
18.96    789
18.98    768
19.0     790
19.02    752
19.04    769
19.06    742
19.08    724
19.1     727
19.12    798
19.14    819
19.16    724
19.18    675
19.2     647
19.22    588
19.24    601
19.26    617
19.28    684
19.3     705
19.32    755
19.34    729
19.36    693
19.38    708
19.4     728
19.42    679
19.44    660
19.46    656
19.48    681
19.5     668
19.52    643
19.54    636
19.56    654
19.58    687
19.6     664
19.62    575
19.64    558
19.66    556
19.68    579
19.7     649
19.72    662
19.74    674
19.76    650
19.78    620
19.8     544
19.82    507
19.84    528
19.86    561
19.88    624
19.9     752
19.92    718
19.94    646
19.96    581
19.98    534
20.0     462
20.02    447
20.04    419
20.06    454
20.08    534
20.1     565
20.12    504
20.14    455
20.16    509
20.18    585
20.2     631
20.22    660
20.24    676
20.26    696
20.28    684
20.3     594
20.32    518
20.34    474
20.36    500
20.38    519
20.4     555
20.42    602
20.44    599
20.46    635
20.48    656
20.5     662
20.52    633
20.54    582
20.56    539
20.58    543
20.6     588
20.62    556
20.64    484
20.66    530
20.68    580
20.7     620
20.72    655
20.74    628
20.76    636
20.78    651
20.8     645
20.82    594
20.84    569
20.86    554
20.88    531
20.9     541
20.92    574
20.94    572
20.96    536
20.98    506
21.0     494
21.02    442
21.04    434
21.06    415
21.08    436
21.1     495
21.12    532
21.14    566
21.16    526
21.18    527
21.2     523
21.22    474
21.24    528
21.26    544
21.28    619
21.3     600
21.32    591
21.34    584
21.36    546
21.38    566
21.4     603
21.42    624
21.44    602
21.46    564
21.48    550
21.5     472
21.52    465
21.54    442
21.56    433
21.58    442
21.6     468
21.62    507
21.64    503
21.66    568
21.68    568
21.7     545
21.72    509
21.74    472
21.76    472
21.78    448
21.8     428
21.82    447
21.84    461
21.86    542
21.88    469
21.9     435
21.92    449
21.94    518
21.96    603
21.98    625
22.0     574
22.02    508
22.04    482
22.06    504
22.08    418
22.1     407
22.12    418
22.14    398
22.16    418
22.18    413
22.2     406
22.22    385
22.24    442
22.26    476
22.28    488
22.3     487
22.32    449
22.34    390
22.36    390
22.38    396
22.4     437
22.42    468
22.44    484
22.46    466
22.48    495
22.5     514
22.52    512
22.54    504
22.56    451
22.58    402
22.6     434
22.62    464
22.64    482
22.66    464
22.68    476
22.7     513
22.72    546
22.74    537
22.76    481
22.78    442
22.8     497
22.82    452
22.84    425
22.86    338
22.88    360
22.9     419
22.92    453
22.94    444
22.96    459
22.98    473
23.0     497
23.02    424
23.04    390
23.06    356
23.08    389
23.1     391
23.12    404
23.14    454
23.16    512
23.18    488
23.2     455
23.22    411
23.24    392
23.26    358
23.28    351
23.3     322
23.32    374
23.34    422
23.36    439
23.38    435
23.4     442
23.42    447
23.44    449
23.46    410
23.48    421
23.5     392
23.52    447
23.54    472
23.56    459
23.58    427
23.6     366
23.62    311
23.64    273
23.66    237
23.68    288
23.7     375
23.72    479
23.74    527
23.76    525
23.78    492
23.8     508
23.82    477
23.84    480
23.86    427
23.88    408
23.9     397
23.92    387
23.94    381
23.96    425
23.98    437
24.0     482
24.02    471
24.04    447
24.06    378
24.08    320
24.1     322
24.12    387
24.14    433
24.16    432
24.18    383
24.2     370
24.22    406
24.24    369
24.26    390
24.28    376
24.3     462
24.32    547
24.34    538
24.36    486
24.38    405
24.4     408
24.42    390
24.44    394
24.46    412
24.48    399
24.5     442
24.52    437
24.54    398
24.56    322
24.58    252
24.6     260
24.62    259
24.64    356
24.66    368
24.68    318
24.7     309
24.72    334
24.74    360
24.76    318
24.78    337
24.8     365
24.82    496
24.84    588
24.86    602
24.88    487
24.9     432
24.92    393
24.94    395
24.96    395
24.98    438
25.0     415
25.02    435
25.04    436
25.06    410
25.08    349
25.1     290
25.12    290
25.14    336
25.16    408
25.18    473
25.2     387
25.22    293
25.24    256
25.26    281
25.28    357
25.3     390
25.32    446
25.34    445
25.36    445
25.38    453
25.4     437
25.42    385
25.44    373
25.46    430
25.48    463
25.5     444
25.52    436
25.54    402
25.56    379
25.58    342
25.6     325
25.62    303
25.64    342
25.66    327
25.68    289
25.7     263
25.72    283
25.74    330
25.76    356
25.78    341
25.8     387
25.82    467
25.84    487
25.86    504
25.88    458
25.9     418
25.92    359
25.94    350
25.96    304
25.98    340
26.0     355
26.02    336
26.04    297
26.06    297
26.08    253
26.1     284
26.12    277
26.14    357
26.16    343
26.18    395
26.2     369
26.22    348
26.24    340
26.26    246
26.28    242
26.3     322
26.32    338
26.34    436
26.36    412
26.38    406
26.4     428
26.42    426
26.44    472
26.46    382
26.48    350
26.5     326
26.52    317
26.54    354
26.56    377
26.58    370
26.6     359
26.62    308
26.64    321
26.66    284
26.68    252
26.7     306
26.72    387
26.74    453
26.76    483
26.78    472
26.8     399
26.82    380
26.84    343
26.86    374
26.88    408
26.9     454
26.92    447
26.94    426
26.96    356
26.98    316
27.0     263
27.02    271
27.04    233
27.06    232
27.08    241
27.1     238
27.12    282
27.14    311
27.16    322
27.18    307
27.2     320
27.22    331
27.24    341
27.26    312
27.28    354
27.3     383
27.32    444
27.34    480
27.36    439
27.38    381
27.4     357
27.42    319
27.44    290
27.46    257
27.48    280
27.5     246
27.52    294
27.54    362
27.56    416
27.58    457
27.6     441
27.62    425
27.64    407
27.66    436
27.68    385
27.7     321
27.72    310
27.74    323
27.76    352
27.78    388
27.8     362
27.82    390
27.84    410
27.86    424
27.88    343
27.9     309
27.92    278
27.94    258
27.96    265
27.98    302
28.0     276
28.02    268
28.04    288
28.06    320
28.08    353
28.1     373
28.12    358
28.14    340
28.16    356
28.18    384
28.2     348
28.22    333
28.24    331
28.26    308
28.28    323
28.3     273
28.32    225
28.34    217
28.36    248
28.38    311
28.4     349
28.42    428
28.44    426
28.46    415
28.48    427
28.5     419
28.52    424
28.54    387
28.56    392
28.58    302
28.6     248
28.62    229
28.64    229
28.66    321
28.68    389
28.7     467
28.72    518
28.74    489
28.76    457
28.78    359
28.8     311
28.82    278
28.84    287
28.86    339
28.88    337
28.9     394
28.92    413
28.94    426
28.96    435
28.98    434
29.0     416
29.02    370
29.04    349
29.06    312
29.08    290
29.1     333
29.12    353
29.14    414
29.16    421
29.18    428
29.2     446
29.22    468
29.24    429
29.26    409
29.28    369
29.3     332
29.32    305
29.34    311
29.36    366
29.38    433
29.4     458
29.42    441
29.44    353
29.46    358
29.48    360
29.5     361
29.52    334
29.54    349
29.56    341
29.58    339
29.6     322
29.62    309
29.64    298
29.66    336
29.68    393
29.7     415
29.72    360
29.74    346
29.76    288
29.78    297
29.8     364
29.82    430
29.84    423
29.86    457
29.88    435
29.9     369
29.92    318
29.94    267
29.96    232
29.98    260
30.0     356
30.02    409
30.04    383
30.06    400
30.08    306
30.1     261
30.12    237
30.14    221
30.16    285
30.18    389
30.2     487
30.22    532
30.24    461
30.26    418
30.28    321
30.3     263
30.32    221
30.34    213
30.36    308
30.38    390
30.4     445
30.42    446
30.44    401
30.46    383
30.48    327
30.5     326
30.52    317
30.54    307
30.56    356
30.58    336
30.6     319
30.62    256
30.64    179
30.66    155
30.68    157
30.7     219
30.72    321
30.74    379
30.76    396
30.78    440
30.8     440
30.82    464
30.84    372
30.86    352
30.88    335
30.9     259
30.92    299
30.94    246
30.96    203
30.98    288
31.0     282
31.02    355
31.04    331
31.06    332
31.08    359
31.1     296
31.12    274
31.14    242
31.16    254
31.18    399
31.2     442
31.22    517
31.24    511
31.26    454
31.28    387
31.3     253
31.32    160
31.34    144
31.36    247
31.38    363
31.4     405
31.42    454
31.44    384
31.46    320
31.48    290
31.5     285
31.52    281
31.54    301
31.56    367
31.58    406
31.6     425
31.62    453
31.64    476
31.66    479
31.68    479
31.7     467
31.72    359
31.74    288
31.76    296
31.78    302
31.8     312
31.82    373
31.84    379
31.86    389
31.88    357
31.9     352
31.92    394
31.94    391
31.96    452
31.98    468
32.0     473
32.02    495
32.04    423
32.06    419
32.08    359
32.1     313
32.12    330
32.14    329
32.16    397
32.18    457
32.2     513
32.22    564
32.24    595
32.26    587
32.28    588
32.3     531
32.32    498
32.34    520
32.36    530
32.38    517
32.4     541
32.42    564
32.44    595
32.46    614
32.48    595
32.5     533
32.52    476
32.54    453
32.56    453
32.58    405
32.6     469
32.62    479
32.64    532
32.66    518
32.68    451
32.7     404
32.72    349
32.74    328
32.76    355
32.78    374
32.8     489
32.82    574
32.84    681
32.86    690
32.88    658
32.9     644
32.92    555
32.94    474
32.96    382
32.98    327
33.0     339
33.02    412
33.04    474
33.06    524
33.08    533
33.1     676
33.12    700
33.14    708
33.16    630
33.18    644
33.2     633
33.22    640
33.24    665
33.26    716
33.28    884
33.3     1113
33.32    1252
33.34    1399
33.36    1639
33.38    2080
33.4     2543
33.42    3380
33.44    4562
33.46    6099
33.48    7927
33.5     9758
33.52    11468
33.54    12588
33.56    12798
33.58    12004
33.6     10363
33.62    8300
33.64    6136
33.66    4145
33.68    2570
33.7     1645
33.72    1276
33.74    1079
33.76    1006
33.78    872
33.8     784
33.82    682
33.84    684
33.86    621
33.88    668
33.9     711
33.92    721
33.94    744
33.96    710
33.98    628
34.0     588
34.02    526
34.04    552
34.06    514
34.08    515
34.1     482
34.12    523
34.14    550
34.16    526
34.18    586
34.2     591
34.22    605
34.24    610
34.26    563
34.28    466
34.3     446
34.32    518
34.34    537
34.36    591
34.38    633
34.4     583
34.42    535
34.44    445
34.46    392
34.48    354
34.5     380
34.52    488
34.54    511
34.56    531
34.58    586
34.6     569
34.62    555
34.64    567
34.66    579
34.68    575
34.7     524
34.72    560
34.74    462
34.76    385
34.78    369
34.8     356
34.82    422
34.84    560
34.86    669
34.88    697
34.9     765
34.92    877
34.94    938
34.96    1145
34.98    1410
35.0     1800
35.02    2454
35.04    3724
35.06    5478
35.08    7560
35.1     9577
35.12    11152
35.14    11981
35.16    11914
35.18    10806
35.2     8927
35.22    6700
35.24    4750
35.26    3219
35.28    2152
35.3     1472
35.32    1091
35.34    935
35.36    925
35.38    886
35.4     896
35.42    877
35.44    858
35.46    805
35.48    759
35.5     673
35.52    573
35.54    568
35.56    557
35.58    562
35.6     623
35.62    692
35.64    680
35.66    653
35.68    683
35.7     647
35.72    627
35.74    660
35.76    644
35.78    589
35.8     613
35.82    624
35.84    597
35.86    636
35.88    681
35.9     678
35.92    715
35.94    814
35.96    761
35.98    720
36.0     754
36.02    714
36.04    664
36.06    638
36.08    581
36.1     619
36.12    692
36.14    779
36.16    822
36.18    916
36.2     982
36.22    1039
36.24    1132
36.26    1214
36.28    1365
36.3     1652
36.32    1999
36.34    2551
36.36    3347
36.38    4713
36.4     7274
36.42    11329
36.44    16272
36.46    21072
36.48    24773
36.5     26722
36.52    26477
36.54    23906
36.56    19599
36.58    14522
36.6     9874
36.62    6378
36.64    4021
36.66    2525
36.68    1587
36.7     1197
36.72    1054
36.74    974
36.76    1062
36.78    1102
36.8     1081
36.82    1043
36.84    1016
36.86    925
36.88    774
36.9     667
36.92    608
36.94    588
36.96    590
36.98    623
37.0     665
37.02    720
37.04    745
37.06    770
37.08    754
37.1     758
37.12    752
37.14    733
37.16    660
37.18    617
37.2     592
37.22    577
37.24    565
37.26    627
37.28    720
37.3     825
37.32    903
37.34    995
37.36    1035
37.38    1003
37.4     973
37.42    885
37.44    805
37.46    735
37.48    662
37.5     536
37.52    504
37.54    473
37.56    477
37.58    517
37.6     607
37.62    622
37.64    661
37.66    663
37.68    576
37.7     476
37.72    478
37.74    408
37.76    450
37.78    496
37.8     617
37.82    666
37.84    731
37.86    738
37.88    678
37.9     606
37.92    566
37.94    462
37.96    394
37.98    316
38.0     385
38.02    413
38.04    419
38.06    420
38.08    377
38.1     361
38.12    393
38.14    395
38.16    374
38.18    429
38.2     527
38.22    590
38.24    613
38.26    621
38.28    528
38.3     471
38.32    447
38.34    370
38.36    321
38.38    378
38.4     494
38.42    562
38.44    649
38.46    645
38.48    585
38.5     516
38.52    470
38.54    424
38.56    430
38.58    449
38.6     506
38.62    509
38.64    500
38.66    459
38.68    447
38.7     400
38.72    378
38.74    432
38.76    465
38.78    420
38.8     433
38.82    494
38.84    470
38.86    438
38.88    498
38.9     467
38.92    477
38.94    510
38.96    531
38.98    500
39.0     536
39.02    500
39.04    414
39.06    344
39.08    328
39.1     239
39.12    316
39.14    353
39.16    446
39.18    572
39.2     642
39.22    588
39.24    566
39.26    475
39.28    341
39.3     276
39.32    347
39.34    399
39.36    472
39.38    563
39.4     597
39.42    559
39.44    480
39.46    381
39.48    326
39.5     339
39.52    378
39.54    494
39.56    538
39.58    555
39.6     565
39.62    526
39.64    419
39.66    411
39.68    431
39.7     492
39.72    496
39.74    589
39.76    543
39.78    532
39.8     469
39.82    496
39.84    420
39.86    447
39.88    440
39.9     495
39.92    474
39.94    494
39.96    478
39.98    516
40.0     462
40.02    607
40.04    671
40.06    757
40.08    730
40.1     738
40.12    727
40.14    723
40.16    703
40.18    693
40.2     672
40.22    772
40.24    803
40.26    803
40.28    762
40.3     735
40.32    718
40.34    673
40.36    696
40.38    752
40.4     766
40.42    788
40.44    857
40.46    854
40.48    843
40.5     785
40.52    817
40.54    746
40.56    835
40.58    890
40.6     908
40.62    911
40.64    988
40.66    938
40.68    830
40.7     768
40.72    792
40.74    758
40.76    795
40.78    858
40.8     882
40.82    966
40.84    1035
40.86    1075
40.88    1056
40.9     1083
40.92    1068
40.94    1082
40.96    1008
40.98    1013
41.0     962
41.02    1061
41.04    1116
41.06    1209
41.08    1298
41.1     1414
41.12    1444
41.14    1542
41.16    1602
41.18    1660
41.2     1780
41.22    2034
41.24    2275
41.26    2543
41.28    2859
41.3     3266
41.32    3782
41.34    4489
41.36    5401
41.38    6640
41.4     8466
41.42    11193
41.44    15589
41.46    23533
41.48    37222
41.5     56132
41.52    76295
41.54    92559
41.56    100849
41.58    99682
41.6     89612
41.62    72487
41.64    51751
41.66    32541
41.68    19062
41.7     11700
41.72    8221
41.74    6430
41.76    4954
41.78    3795
41.8     3140
41.82    2713
41.84    2417
41.86    2361
41.88    2313
41.9     2256
41.92    2087
41.94    1928
41.96    1799
41.98    1572
42.0     1420
42.02    1295
42.04    1219
42.06    1175
42.08    1087
42.1     1138
42.12    1136
42.14    1131
42.16    1222
42.18    1168
42.2     1165
42.22    1133
42.24    1076
42.26    977
42.28    896
42.3     864
42.32    876
42.34    877
42.36    937
42.38    962
42.4     1004
42.42    1036
42.44    979
42.46    938
42.48    871
42.5     800
42.52    772
42.54    798
42.56    767
42.58    803
42.6     833
42.62    898
42.64    832
42.66    778
42.68    681
42.7     648
42.72    618
42.74    665
42.76    618
42.78    708
42.8     795
42.82    837
42.84    789
42.86    744
42.88    712
42.9     672
42.92    578
42.94    553
42.96    572
42.98    664
43.0     701
43.02    726
43.04    798
43.06    882
43.08    972
43.1     971
43.12    920
43.14    874
43.16    815
43.18    760
43.2     658
43.22    642
43.24    694
43.26    754
43.28    839
43.3     863
43.32    852
43.34    860
43.36    767
43.38    681
43.4     574
43.42    574
43.44    573
43.46    561
43.48    556
43.5     574
43.52    526
43.54    561
43.56    533
43.58    534
43.6     537
43.62    621
43.64    619
43.66    562
43.68    570
43.7     597
43.72    551
43.74    591
43.76    658
43.78    720
43.8     774
43.82    810
43.84    736
43.86    645
43.88    645
43.9     603
43.92    578
43.94    557
43.96    548
43.98    518
44.0     534
44.02    553
44.04    532
44.06    549
44.08    582
44.1     552
44.12    561
44.14    538
44.16    504
44.18    462
44.2     403
44.22    402
44.24    415
44.26    476
44.28    535
44.3     569
44.32    664
44.34    686
44.36    704
44.38    682
44.4     614
44.42    605
44.44    553
44.46    547
44.48    557
44.5     550
44.52    502
44.54    417
44.56    432
44.58    423
44.6     417
44.62    426
44.64    464
44.66    559
44.68    613
44.7     621
44.72    609
44.74    651
44.76    648
44.78    560
44.8     503
44.82    503
44.84    537
44.86    561
44.88    590
44.9     643
44.92    788
44.94    920
44.96    1074
44.98    1373
45.0     1781
45.02    2092
45.04    2274
45.06    2337
45.08    2225
45.1     1966
45.12    1638
45.14    1292
45.16    1037
45.18    905
45.2     823
45.22    704
45.24    628
45.26    604
45.28    553
45.3     532
45.32    522
45.34    577
45.36    603
45.38    606
45.4     628
45.42    588
45.44    574
45.46    581
45.48    628
45.5     625
45.52    595
45.54    605
45.56    574
45.58    538
45.6     477
45.62    433
45.64    415
45.66    403
45.68    469
45.7     508
45.72    600
45.74    630
45.76    631
45.78    622
45.8     541
45.82    496
45.84    383
45.86    305
45.88    293
45.9     352
45.92    461
45.94    549
45.96    643
45.98    736
46.0     749
46.02    715
46.04    630
46.06    556
46.08    394
46.1     269
46.12    247
46.14    220
46.16    288
46.18    362
46.2     462
46.22    578
46.24    631
46.26    667
46.28    561
46.3     493
46.32    447
46.34    368
46.36    338
46.38    269
46.4     344
46.42    406
46.44    412
46.46    450
46.48    484
46.5     533
46.52    520
46.54    474
46.56    432
46.58    404
46.6     439
46.62    444
46.64    428
46.66    448
46.68    523
46.7     559
46.72    533
46.74    512
46.76    527
46.78    556
46.8     545
46.82    524
46.84    486
46.86    474
46.88    519
46.9     429
46.92    375
46.94    351
46.96    316
46.98    363
47.0     349
47.02    357
47.04    374
47.06    455
47.08    546
47.1     501
47.12    522
47.14    522
47.16    584
47.18    625
47.2     593
47.22    572
47.24    554
47.26    588
47.28    560
47.3     490
47.32    458
47.34    493
47.36    524
47.38    471
47.4     377
47.42    395
47.44    367
47.46    417
47.48    442
47.5     489
47.52    578
47.54    686
47.56    685
47.58    677
47.6     626
47.62    607
47.64    497
47.66    468
47.68    432
47.7     393
47.72    426
47.74    452
47.76    495
47.78    547
47.8     577
47.82    571
47.84    528
47.86    522
47.88    521
47.9     478
47.92    492
47.94    480
47.96    508
47.98    458
48.0     445
48.02    451
48.04    412
48.06    450
48.08    449
48.1     430
48.12    389
48.14    368
48.16    367
48.18    329
48.2     322
48.22    350
48.24    356
48.26    410
48.28    416
48.3     429
48.32    450
48.34    519
48.36    572
48.38    558
48.4     520
48.42    543
48.44    530
48.46    512
48.48    464
48.5     470
48.52    481
48.54    450
48.56    423
48.58    396
48.6     377
48.62    436
48.64    445
48.66    434
48.68    420
48.7     512
48.72    546
48.74    504
48.76    500
48.78    473
48.8     465
48.82    426
48.84    343
48.86    203
48.88    187
48.9     276
48.92    294
48.94    280
48.96    347
48.98    442
49.0     556
49.02    575
49.04    564
49.06    468
49.08    505
49.1     494
49.12    411
49.14    346
49.16    319
49.18    354
49.2     379
49.22    405
49.24    434
49.26    456
49.28    545
49.3     585
49.32    573
49.34    550
49.36    466
49.38    425
49.4     332
49.42    324
49.44    326
49.46    341
49.48    415
49.5     461
49.52    480
49.54    530
49.56    526
49.58    541
49.6     448
49.62    379
49.64    327
49.66    347
49.68    335
49.7     355
49.72    383
49.74    473
49.76    529
49.78    530
49.8     491
49.82    454
49.84    465
49.86    481
49.88    453
49.9     476
49.92    503
49.94    527
49.96    512
49.98    464
50.0     519
50.02    537
50.04    533
50.06    506
50.08    456
50.1     436
50.12    394
50.14    327
50.16    334
50.18    329
50.2     439
50.22    509
50.24    524
50.26    529
50.28    490
50.3     452
50.32    402
50.34    341
50.36    361
50.38    385
50.4     418
50.42    487
50.44    483
50.46    509
50.48    471
50.5     435
50.52    441
50.54    406
50.56    408
50.58    422
50.6     388
50.62    471
50.64    470
50.66    451
50.68    410
50.7     381
50.72    401
50.74    384
50.76    367
50.78    386
50.8     420
50.82    519
50.84    522
50.86    521
50.88    568
50.9     552
50.92    547
50.94    446
50.96    430
50.98    494
51.0     489
51.02    462
51.04    408
51.06    458
51.08    470
51.1     507
51.12    485
51.14    445
51.16    496
51.18    573
51.2     512
51.22    452
51.24    417
51.26    418
51.28    393
51.3     441
51.32    440
51.34    488
51.36    460
51.38    494
51.4     443
51.42    418
51.44    384
51.46    345
51.48    285
51.5     331
51.52    393
51.54    433
51.56    404
51.58    417
51.6     378
51.62    427
51.64    407
51.66    380
51.68    350
51.7     405
51.72    475
51.74    529
51.76    549
51.78    597
51.8     543
51.82    556
51.84    535
51.86    479
51.88    458
51.9     439
51.92    468
51.94    449
51.96    448
51.98    515
52.0     488
52.02    536
52.04    529
52.06    510
52.08    569
52.1     494
52.12    455
52.14    410
52.16    412
52.18    449
52.2     480
52.22    501
52.24    536
52.26    630
52.28    712
52.3     649
52.32    609
52.34    527
52.36    476
52.38    379
52.4     310
52.42    294
52.44    374
52.46    462
52.48    551
52.5     548
52.52    563
52.54    599
52.56    639
52.58    603
52.6     556
52.62    505
52.64    513
52.66    524
52.68    470
52.7     416
52.72    477
52.74    471
52.76    460
52.78    465
52.8     411
52.82    449
52.84    463
52.86    524
52.88    519
52.9     562
52.92    597
52.94    565
52.96    546
52.98    564
53.0     525
53.02    526
53.04    496
53.06    549
53.08    537
53.1     554
53.12    544
53.14    625
53.16    691
53.18    805
53.2     876
53.22    915
53.24    1018
53.26    1125
53.28    1195
53.3     1337
53.32    1590
53.34    1989
53.36    2612
53.38    3659
53.4     5149
53.42    6962
53.44    8590
53.46    9607
53.48    9842
53.5     9291
53.52    8048
53.54    6297
53.56    4491
53.58    3028
53.6     2132
53.62    1752
53.64    1535
53.66    1329
53.68    1179
53.7     1040
53.72    881
53.74    767
53.76    708
53.78    621
53.8     562
53.82    547
53.84    546
53.86    543
53.88    543
53.9     496
53.92    511
53.94    526
53.96    572
53.98    559
54.0     553
54.02    530
54.04    573
54.06    568
54.08    620
54.1     517
54.12    556
54.14    530
54.16    560
54.18    579
54.2     586
54.22    565
54.24    610
54.26    614
54.28    643
54.3     526
54.32    499
54.34    429
54.36    381
54.38    329
54.4     256
54.42    232
54.44    268
54.46    359
54.48    433
54.5     495
54.52    531
54.54    603
54.56    571
54.58    540
54.6     524
54.62    510
54.64    486
54.66    478
54.68    486
54.7     442
54.72    459
54.74    481
54.76    441
54.78    500
54.8     514
54.82    522
54.84    566
54.86    555
54.88    578
54.9     551
54.92    522
54.94    506
54.96    486
54.98    422
55.0     368
55.02    368
55.04    370
55.06    410
55.08    447
55.1     457
55.12    442
55.14    456
55.16    456
55.18    457
55.2     471
55.22    451
55.24    445
55.26    530
55.28    476
55.3     444
55.32    393
55.34    319
55.36    304
55.38    342
55.4     374
55.42    458
55.44    501
55.46    628
55.48    673
55.5     713
55.52    681
55.54    643
55.56    610
55.58    586
55.6     568
55.62    543
55.64    492
55.66    583
55.68    596
55.7     554
55.72    488
55.74    503
55.76    466
55.78    435
55.8     379
55.82    381
55.84    417
55.86    461
55.88    515
55.9     535
55.92    536
55.94    561
55.96    560
55.98    549
56.0     478
56.02    460
56.04    404
56.06    350
56.08    398
56.1     392
56.12    313
56.14    298
56.16    363
56.18    410
56.2     434
56.22    504
56.24    587
56.26    673
56.28    734
56.3     703
56.32    607
56.34    565
56.36    507
56.38    447
56.4     426
56.42    418
56.44    435
56.46    455
56.48    428
56.5     395
56.52    408
56.54    398
56.56    373
56.58    413
56.6     472
56.62    501
56.64    584
56.66    612
56.68    578
56.7     549
56.72    519
56.74    499
56.76    489
56.78    538
56.8     544
56.82    578
56.84    571
56.86    566
56.88    580
56.9     557
56.92    536
56.94    517
56.96    535
56.98    555
57.0     549
57.02    542
57.04    495
57.06    542
57.08    568
57.1     617
57.12    633
57.14    638
57.16    659
57.18    632
57.2     586
57.22    535
57.24    498
57.26    490
57.28    441
57.3     503
57.32    538
57.34    618
57.36    660
57.38    665
57.4     660
57.42    668
57.44    660
57.46    681
57.48    631
57.5     579
57.52    584
57.54    590
57.56    550
57.58    534
57.6     515
57.62    487
57.64    495
57.66    571
57.68    547
57.7     636
57.72    722
57.74    750
57.76    808
57.78    813
57.8     773
57.82    784
57.84    767
57.86    810
57.88    828
57.9     954
57.92    962
57.94    1075
57.96    1287
57.98    1358
58.0     1489
58.02    1621
58.04    1740
58.06    1926
58.08    2182
58.1     2445
58.12    2913
58.14    3704
58.16    5029
58.18    7013
58.2     9872
58.22    13497
58.24    17325
58.26    20464
58.28    22259
58.3     22157
58.32    20317
58.34    17037
58.36    13135
58.38    9290
58.4     6167
58.42    4225
58.44    3065
58.46    2419
58.48    2048
58.5     1772
58.52    1620
58.54    1496
58.56    1457
58.58    1366
58.6     1293
58.62    1273
58.64    1175
58.66    1010
58.68    888
58.7     753
58.72    697
58.74    657
58.76    613
58.78    565
58.8     553
58.82    549
58.84    600
58.86    571
58.88    595
58.9     571
58.92    591
58.94    587
58.96    580
58.98    596
59.0     533
59.02    497
59.04    505
59.06    584
59.08    614
59.1     650
59.12    670
59.14    658
59.16    684
59.18    735
59.2     642
59.22    539
59.24    470
59.26    502
59.28    429
59.3     407
59.32    388
59.34    386
59.36    428
59.38    534
59.4     574
59.42    563
59.44    562
59.46    625
59.48    605
59.5     577
59.52    469
59.54    429
59.56    395
59.58    402
59.6     485
59.62    501
59.64    517
59.66    610
59.68    618
59.7     658
59.72    581
59.74    553
59.76    485
59.78    367
59.8     433
59.82    440
59.84    435
59.86    446
59.88    457
59.9     567
59.92    569
59.94    555
59.96    482
59.98    403
60.0     415
60.02    413
60.04    382
60.06    349
60.08    342
60.1     393
60.12    435
60.14    434
60.16    492
60.18    526
60.2     527
60.22    563
60.24    583
60.26    600
60.28    621
60.3     580
60.32    563
60.34    546
60.36    581
60.38    583
60.4     557
60.42    521
60.44    544
60.46    541
60.48    523
60.5     462
60.52    490
60.54    509
60.56    511
60.58    574
60.6     530
60.62    539
60.64    536
60.66    498
60.68    498
60.7     518
60.72    575
60.74    594
60.76    584
60.78    616
60.8     565
60.82    574
60.84    514
60.86    450
60.88    464
60.9     475
60.92    512
60.94    520
60.96    494
60.98    489
61.0     484
61.02    478
61.04    401
61.06    380
61.08    394
61.1     431
61.12    509
61.14    559
61.16    588
61.18    620
61.2     659
61.22    643
61.24    552
61.26    555
61.28    466
61.3     413
61.32    407
61.34    424
61.36    379
61.38    454
61.4     526
61.42    551
61.44    611
61.46    681
61.48    657
61.5     639
61.52    643
61.54    558
61.56    452
61.58    465
61.6     487
61.62    499
61.64    553
61.66    565
61.68    590
61.7     630
61.72    735
61.74    714
61.76    704
61.78    697
61.8     747
61.82    817
61.84    817
61.86    846
61.88    875
61.9     955
61.92    1116
61.94    1240
61.96    1374
61.98    1535
62.0     1919
62.02    2612
62.04    3795
62.06    5732
62.08    8310
62.1     11257
62.12    14020
62.14    16193
62.16    17430
62.18    17639
62.2     16910
62.22    15459
62.24    13727
62.26    12042
62.28    10487
62.3     9096
62.32    7763
62.34    6494
62.36    5301
62.38    4244
62.4     3333
62.42    2593
62.44    2058
62.46    1739
62.48    1426
62.5     1226
62.52    1087
62.54    1015
62.56    942
62.58    868
62.6     796
62.62    741
62.64    736
62.66    846
62.68    839
62.7     791
62.72    716
62.74    678
62.76    638
62.78    587
62.8     541
62.82    550
62.84    508
62.86    617
62.88    705
62.9     722
62.92    771
62.94    774
62.96    764
62.98    703
63.0     611
63.02    562
63.04    425
63.06    379
63.08    361
63.1     281
63.12    304
63.14    311
63.16    348
63.18    365
63.2     399
63.22    512
63.24    511
63.26    514
63.28    547
63.3     530
63.32    565
63.34    517
63.36    518
63.38    524
63.4     540
63.42    564
63.44    541
63.46    541
63.48    560
63.5     588
63.52    635
63.54    551
63.56    505
63.58    511
63.6     459
63.62    421
63.64    462
63.66    427
63.68    417
63.7     435
63.72    513
63.74    461
63.76    422
63.78    469
63.8     447
63.82    459
63.84    566
63.86    534
63.88    559
63.9     556
63.92    592
63.94    540
63.96    492
63.98    421
64.0     349
64.02    354
64.04    467
64.06    484
64.08    519
64.1     582
64.12    617
64.14    637
64.16    614
64.18    525
64.2     454
64.22    430
64.24    434
64.26    442
64.28    432
64.3     479
64.32    479
64.34    521
64.36    562
64.38    610
64.4     615
64.42    635
64.44    650
64.46    683
64.48    668
64.5     679
64.52    664
64.54    690
64.56    682
64.58    720
64.6     686
64.62    738
64.64    770
64.66    879
64.68    1043
64.7     1275
64.72    1659
64.74    2209
64.76    2798
64.78    3518
64.8     4141
64.82    4713
64.84    5002
64.86    5031
64.88    4857
64.9     4468
64.92    4090
64.94    3634
64.96    3163
64.98    2753
65.0     2330
65.02    1932
65.04    1581
65.06    1232
65.08    1060
65.1     847
65.12    809
65.14    735
65.16    698
65.18    671
65.2     656
65.22    628
65.24    619
65.26    559
65.28    612
65.3     523
65.32    516
65.34    462
65.36    374
65.38    313
65.4     294
65.42    278
65.44    283
65.46    307
65.48    440
65.5     465
65.52    538
65.54    605
65.56    610
65.58    628
65.6     610
65.62    560
65.64    534
65.66    507
65.68    529
65.7     487
65.72    466
65.74    454
65.76    446
65.78    462
65.8     424
65.82    379
65.84    392
65.86    366
65.88    346
65.9     315
65.92    262
65.94    251
65.96    254
65.98    315
66.0     332
66.02    346
66.04    400
66.06    407
66.08    420
66.1     458
66.12    414
66.14    495
66.16    471
66.18    499
66.2     541
66.22    542
66.24    555
66.26    553
66.28    510
66.3     542
66.32    501
66.34    523
66.36    490
66.38    461
66.4     499
66.42    495
66.44    521
66.46    464
66.48    478
66.5     520
66.52    490
66.54    448
66.56    434
66.58    390
66.6     403
66.62    429
66.64    447
66.66    396
66.68    403
66.7     360
66.72    355
66.74    390
66.76    405
66.78    450
66.8     513
66.82    515
66.84    484
66.86    435
66.88    393
66.9     345
66.92    343
66.94    387
66.96    373
66.98    369
67.0     408
67.02    412
67.04    391
67.06    417
67.08    446
67.1     467
67.12    396
67.14    409
67.16    392
67.18    392
67.2     421
67.22    460
67.24    467
67.26    527
67.28    494
67.3     468
67.32    419
67.34    438
67.36    437
67.38    405
67.4     378
67.42    400
67.44    392
67.46    367
67.48    352
67.5     367
67.52    436
67.54    455
67.56    474
67.58    465
67.6     450
67.62    442
67.64    405
67.66    409
67.68    412
67.7     313
67.72    300
67.74    297
67.76    308
67.78    298
67.8     323
67.82    346
67.84    371
67.86    405
67.88    420
67.9     396
67.92    402
67.94    370
67.96    358
67.98    384
68.0     412
68.02    399
68.04    424
68.06    472
68.08    559
68.1     608
68.12    615
68.14    587
68.16    642
68.18    608
68.2     535
68.22    500
68.24    436
68.26    341
68.28    303
68.3     309
68.32    358
68.34    401
68.36    509
68.38    567
68.4     663
68.42    733
68.44    756
68.46    718
68.48    678
68.5     642
68.52    592
68.54    558
68.56    486
68.58    470
68.6     465
68.62    450
68.64    440
68.66    442
68.68    485
68.7     558
68.72    636
68.74    734
68.76    802
68.78    917
68.8     1069
68.82    1235
68.84    1598
68.86    2027
68.88    2594
68.9     3251
68.92    3974
68.94    4663
68.96    5157
68.98    5365
69.0     5242
69.02    4816
69.04    4195
69.06    3395
69.08    2635
69.1     1943
69.12    1493
69.14    1177
69.16    1004
69.18    902
69.2     783
69.22    755
69.24    731
69.26    737
69.28    728
69.3     698
69.32    725
69.34    700
69.36    679
69.38    662
69.4     569
69.42    586
69.44    565
69.46    513
69.48    511
69.5     487
69.52    503
69.54    476
69.56    480
69.58    532
69.6     516
69.62    575
69.64    568
69.66    568
69.68    600
69.7     537
69.72    472
69.74    415
69.76    403
69.78    410
69.8     384
69.82    356
69.84    362
69.86    385
69.88    424
69.9     430
69.92    436
69.94    464
69.96    488
69.98    520
70.0     549
70.02    525
70.04    526
70.06    524
70.08    496
70.1     477
70.12    444
70.14    399
70.16    405
70.18    403
70.2     486
70.22    486
70.24    561
70.26    669
70.28    741
70.3     823
70.32    864
70.34    928
70.36    1053
70.38    1149
70.4     1188
70.42    1224
70.44    1326
70.46    1388
70.48    1443
70.5     1527
70.52    1629
70.54    1790
70.56    1961
70.58    2059
70.6     2157
70.62    2222
70.64    2151
70.66    1937
70.68    1740
70.7     1494
70.72    1248
70.74    951
70.76    727
70.78    634
70.8     663
70.82    636
70.84    553
70.86    545
70.88    564
70.9     584
70.92    548
70.94    489
70.96    500
70.98    544
71.0     559
71.02    544
71.04    541
71.06    510
71.08    467
71.1     404
71.12    340
71.14    337
71.16    327
71.18    308
71.2     302
71.22    370
71.24    422
71.26    457
71.28    525
71.3     525
71.32    607
71.34    622
71.36    598
71.38    579
71.4     577
71.42    557
71.44    497
71.46    473
71.48    458
71.5     401
71.52    393
71.54    359
71.56    375
71.58    494
71.6     493
71.62    513
71.64    533
71.66    556
71.68    614
71.7     529
71.72    506
71.74    473
71.76    467
71.78    456
71.8     379
71.82    367
71.84    427
71.86    431
71.88    456
71.9     433
71.92    489
71.94    550
71.96    574
71.98    566
72.0     616
72.02    579
72.04    626
72.06    596
72.08    611
72.1     600
72.12    570
72.14    551
72.16    490
72.18    493
72.2     552
72.22    531
72.24    639
72.26    711
72.28    756
72.3     754
72.32    800
72.34    868
72.36    927
72.38    1075
72.4     1232
72.42    1537
72.44    2103
72.46    2755
72.48    3614
72.5     4559
72.52    5483
72.54    6164
72.56    6469
72.58    6472
72.6     6132
72.62    5589
72.64    4817
72.66    3985
72.68    3294
72.7     2718
72.72    2199
72.74    1775
72.76    1411
72.78    1238
72.8     1079
72.82    897
72.84    715
72.86    680
72.88    625
72.9     585
72.92    545
72.94    574
72.96    566
72.98    629
73.0     653
73.02    664
73.04    731
73.06    782
73.08    728
73.1     708
73.12    644
73.14    657
73.16    548
73.18    570
73.2     543
73.22    531
73.24    574
73.26    545
73.28    552
73.3     619
73.32    629
73.34    693
73.36    676
73.38    760
73.4     811
73.42    918
73.44    1024
73.46    1036
73.48    1158
73.5     1223
73.52    1238
73.54    1157
73.56    1066
73.58    1035
73.6     1011
73.62    947
73.64    870
73.66    791
73.68    811
73.7     738
73.72    693
73.74    556
73.76    516
73.78    531
73.8     523
73.82    475
73.84    482
73.86    486
73.88    492
73.9     479
73.92    506
73.94    519
73.96    622
73.98    719
74.0     715
74.02    713
74.04    725
74.06    683
74.08    645
74.1     638
74.12    676
74.14    694
74.16    796
74.18    990
74.2     1182
74.22    1525
74.24    1812
74.26    2106
74.28    2357
74.3     2546
74.32    2578
74.34    2491
74.36    2407
74.38    2304
74.4     2152
74.42    1990
74.44    1779
74.46    1584
74.48    1410
74.5     1243
74.52    1068
74.54    998
74.56    962
74.58    948
74.6     971
74.62    1023
74.64    1084
74.66    1165
74.68    1273
74.7     1419
74.72    1649
74.74    1894
74.76    2082
74.78    2276
74.8     2440
74.82    2604
74.84    2711
74.86    2754
74.88    2712
74.9     2665
74.92    2512
74.94    2196
74.96    1810
74.98    1433
75.0     1171
75.02    1019
75.04    923
75.06    848
75.08    886
75.1     879
75.12    801
75.14    660
75.16    580
75.18    589
75.2     645
75.22    645
75.24    616
75.26    640
75.28    654
75.3     579
75.32    533
75.34    511
75.36    574
75.38    608
75.4     603
75.42    548
75.44    547
75.46    563
75.48    511
75.5     543
75.52    561
75.54    611
75.56    595
75.58    526
75.6     501
75.62    492
75.64    540
75.66    468
75.68    424
75.7     511
75.72    452
75.74    464
75.76    423
75.78    444
75.8     507
75.82    598
75.84    635
75.86    586
75.88    611
75.9     626
75.92    495
75.94    494
75.96    396
75.98    375
76.0     394
76.02    393
76.04    407
76.06    436
76.08    475
76.1     482
76.12    509
76.14    563
76.16    532
76.18    575
76.2     544
76.22    501
76.24    519
76.26    481
76.28    460
76.3     463
76.32    489
76.34    477
76.36    499
76.38    486
76.4     371
76.42    372
76.44    433
76.46    450
76.48    508
76.5     592
76.52    666
76.54    666
76.56    731
76.58    687
76.6     593
76.62    583
76.64    581
76.66    555
76.68    539
76.7     582
76.72    560
76.74    601
76.76    674
76.78    692
76.8     637
76.82    641
76.84    643
76.86    621
76.88    568
76.9     571
76.92    521
76.94    533
76.96    486
76.98    475
77.0     389
77.02    446
77.04    464
77.06    527
77.08    533
77.1     573
77.12    608
77.14    628
77.16    616
77.18    605
77.2     619
77.22    728
77.24    736
77.26    766
77.28    753
77.3     832
77.32    896
77.34    914
77.36    904
77.38    956
77.4     1078
77.42    1204
77.44    1424
77.46    1913
77.48    2592
77.5     3468
77.52    4326
77.54    5138
77.56    5819
77.58    6260
77.6     6356
77.62    6176
77.64    5992
77.66    5640
77.68    5217
77.7     4778
77.72    4265
77.74    3738
77.76    3277
77.78    2786
77.8     2342
77.82    2033
77.84    1820
77.86    1528
77.88    1393
77.9     1227
77.92    1074
77.94    927
77.96    901
77.98    817
78.0     753
78.02    778
78.04    686
78.06    641
78.08    637
78.1     642
78.12    604
78.14    627
78.16    618
78.18    614
78.2     560
78.22    576
78.24    534
78.26    537
78.28    496
78.3     450
78.32    429
78.34    465
78.36    469
78.38    539
78.4     539
78.42    558
78.44    582
78.46    568
78.48    512
78.5     467
78.52    525
78.54    553
78.56    588
78.58    625
78.6     621
78.62    590
78.64    551
78.66    534
78.68    534
78.7     542
78.72    531
78.74    501
78.76    494
78.78    508
78.8     470
78.82    485
78.84    489
78.86    544
78.88    583
78.9     621
78.92    603
78.94    639
78.96    709
78.98    700
79.0     657
79.02    640
79.04    610
79.06    532
79.08    430
79.1     453
79.12    394
79.14    399
79.16    426
79.18    422
79.2     423
79.22    448
79.24    505
79.26    549
79.28    569
79.3     679
79.32    653
79.34    669
79.36    712
79.38    723
79.4     676
79.42    684
79.44    727
79.46    699
79.48    650
79.5     609
79.52    563
79.54    488
79.56    509
79.58    514
79.6     499
79.62    580
79.64    601
79.66    557
79.68    521
79.7     468
79.72    458
79.74    392
79.76    418
79.78    485
79.8     523
79.82    576
79.84    618
79.86    633
79.88    637
79.9     686
79.92    716
79.94    696
79.96    726
79.98    822
80.0     808
80.02    788
80.04    829
80.06    825
80.08    823
80.1     864
80.12    820
80.14    745
80.16    722
80.18    688
80.2     620
80.22    541
80.24    575
80.26    594
80.28    505
80.3     515
80.32    456
80.34    388
80.36    393
80.38    430
80.4     472
80.42    509
80.44    589
80.46    620
80.48    557
80.5     544
80.52    525
80.54    502
80.56    539
80.58    582
80.6     580
80.62    578
80.64    526
80.66    536
80.68    455
80.7     390
80.72    381
80.74    393
80.76    387
80.78    439
80.8     459
80.82    511
80.84    543
80.86    606
80.88    641
80.9     705
80.92    716
80.94    694
80.96    620
80.98    632
81.0     600
81.02    527
81.04    499
81.06    512
81.08    540
81.1     568
81.12    545
81.14    476
81.16    377
81.18    353
81.2     309
81.22    250
81.24    242
81.26    334
81.28    371
81.3     426
81.32    470
81.34    508
81.36    510
81.38    541
81.4     605
81.42    654
81.44    662
81.46    720
81.48    726
81.5     668
81.52    669
81.54    676
81.56    627
81.58    572
81.6     540
81.62    487
81.64    452
81.66    404
81.68    453
81.7     496
81.72    547
81.74    582
81.76    593
81.78    562
81.8     535
81.82    490
81.84    468
81.86    437
81.88    487
81.9     539
81.92    557
81.94    561
81.96    578
81.98    557
82.0     574
82.02    587
82.04    575
82.06    600
82.08    634
82.1     621
82.12    631
82.14    595
82.16    519
82.18    479
82.2     476
82.22    433
82.24    424
82.26    451
82.28    538
82.3     550
82.32    618
82.34    631
82.36    549
82.38    531
82.4     552
82.42    533
82.44    514
82.46    483
82.48    545
82.5     525
82.52    515
82.54    498
82.56    441
82.58    487
82.6     565
82.62    560
82.64    514
82.66    528
82.68    561
82.7     552
82.72    575
82.74    590
82.76    577
82.78    655
82.8     637
82.82    597
82.84    551
82.86    524
82.88    477
82.9     464
82.92    474
82.94    474
82.96    465
82.98    525
83.0     547
83.02    577
83.04    507
83.06    438
83.08    412
83.1     416
83.12    381
83.14    402
83.16    455
83.18    552
83.2     690
83.22    758
83.24    748
83.26    751
83.28    753
83.3     759
83.32    669
83.34    617
83.36    586
83.38    550
83.4     554
83.42    508
83.44    479
83.46    440
83.48    458
83.5     481
83.52    516
83.54    493
83.56    446
83.58    463
83.6     504
83.62    515
83.64    503
83.66    469
83.68    505
83.7     516
83.72    507
83.74    450
83.76    454
83.78    508
83.8     556
83.82    548
83.84    540
83.86    553
83.88    578
83.9     535
83.92    561
83.94    574
83.96    584
83.98    587
84.0     545
84.02    453
84.04    471
84.06    451
84.08    403
84.1     376
84.12    481
84.14    467
84.16    516
84.18    533
84.2     528
84.22    520
84.24    605
84.26    599
84.28    639
84.3     655
84.32    691
84.34    660
84.36    666
84.38    567
84.4     549
84.42    525
84.44    536
84.46    503
84.48    520
84.5     495
84.52    541
84.54    536
84.56    514
84.58    475
84.6     499
84.62    480
84.64    449
84.66    462
84.68    509
84.7     567
84.72    705
84.74    793
84.76    872
84.78    899
84.8     917
84.82    908
84.84    893
84.86    933
84.88    866
84.9     795
84.92    751
84.94    703
84.96    607
84.98    473
85.0     415
85.02    417
85.04    488
85.06    575
85.08    593
85.1     578
85.12    520
85.14    484
85.16    475
85.18    459
85.2     436
85.22    453
85.24    558
85.26    625
85.28    666
85.3     592
85.32    531
85.34    507
85.36    515
85.38    539
85.4     534
85.42    510
85.44    538
85.46    536
85.48    555
85.5     486
85.52    431
85.54    401
85.56    384
85.58    470
85.6     476
85.62    482
85.64    474
85.66    519
85.68    560
85.7     573
85.72    558
85.74    559
85.76    589
85.78    614
85.8     580
85.82    545
85.84    470
85.86    494
85.88    506
85.9     507
85.92    472
85.94    470
85.96    482
85.98    498
86.0     522
86.02    566
86.04    580
86.06    635
86.08    671
86.1     620
86.12    592
86.14    587
86.16    586
86.18    618
86.2     622
86.22    646
86.24    640
86.26    689
86.28    713
86.3     701
86.32    727
86.34    774
86.36    901
86.38    1049
86.4     1215
86.42    1414
86.44    1549
86.46    1681
86.48    1694
86.5     1686
86.52    1640
86.54    1540
86.56    1475
86.58    1358
86.6     1267
86.62    1155
86.64    990
86.66    849
86.68    700
86.7     639
86.72    568
86.74    541
86.76    530
86.78    541
86.8     591
86.82    594
86.84    559
86.86    515
86.88    449
86.9     448
86.92    427
86.94    486
86.96    479
86.98    553
87.0     594
87.02    556
87.04    558
87.06    537
87.08    503
87.1     554
87.12    569
87.14    596
87.16    572
87.18    593
87.2     544
87.22    432
87.24    429
87.26    421
87.28    480
87.3     553
87.32    549
87.34    534
87.36    530
87.38    530
87.4     508
87.42    457
87.44    509
87.46    523
87.48    586
87.5     627
87.52    568
87.54    522
87.56    479
87.58    515
87.6     576
87.62    613
87.64    660
87.66    655
87.68    693
87.7     772
87.72    716
87.74    722
87.76    669
87.78    683
87.8     672
87.82    650
87.84    571
87.86    538
87.88    511
87.9     554
87.92    430
87.94    424
87.96    404
87.98    415
88.0     418
88.02    409
88.04    412
88.06    443
88.08    503
88.1     565
88.12    547
88.14    601
88.16    665
88.18    640
88.2     611
88.22    598
88.24    541
88.26    488
88.28    459
88.3     451
88.32    403
88.34    403
88.36    437
88.38    396
88.4     386
88.42    422
88.44    439
88.46    429
88.48    441
88.5     506
88.52    556
88.54    621
88.56    645
88.58    591
88.6     620
88.62    668
88.64    712
88.66    640
88.68    716
88.7     699
88.72    740
88.74    649
88.76    563
88.78    426
88.8     373
88.82    385
88.84    394
88.86    424
88.88    510
88.9     520
88.92    553
88.94    522
88.96    431
88.98    357
89.0     316
89.02    400
89.04    415
89.06    498
89.08    536
89.1     577
89.12    601
89.14    596
89.16    555
89.18    571
89.2     588
89.22    622
89.24    687
89.26    725
89.28    718
89.3     667
89.32    609
89.34    572
89.36    526
89.38    470
89.4     471
89.42    544
89.44    568
89.46    595
89.48    576
89.5     544
89.52    482
89.54    489
89.56    448
89.58    456
89.6     555
89.62    651
89.64    639
89.66    732
89.68    708
89.7     650
89.72    600
89.74    552
89.76    499
89.78    445
89.8     488
89.82    493
89.84    552
89.86    636
89.88    634
89.9     639
89.92    680
89.94    630
89.96    606
89.98    631
90.0     656
