?
5.0      1126
5.02     1126
5.04     1464
5.06     1304
5.08     1375
5.1      1355
5.12     1342
5.14     1351
5.16     1353
5.18     1358
5.2      1373
5.22     1352
5.24     1354
5.26     1343
5.28     1352
5.3      1337
5.32     1324
5.34     1342
5.36     1360
5.38     1362
5.4      1362
5.42     1343
5.44     1306
5.46     1298
5.48     1310
5.5      1312
5.52     1310
5.54     1314
5.56     1334
5.58     1316
5.6      1307
5.62     1304
5.64     1291
5.66     1333
5.68     1377
5.7      1403
5.72     1377
5.74     1381
5.76     1351
5.78     1316
5.8      1308
5.82     1268
5.84     1246
5.86     1262
5.88     1301
5.9      1304
5.92     1331
5.94     1332
5.96     1333
5.98     1318
6.0      1299
6.02     1264
6.04     1278
6.06     1265
6.08     1289
6.1      1294
6.12     1311
6.14     1325
6.16     1302
6.18     1270
6.2      1220
6.22     1227
6.24     1233
6.26     1207
6.28     1219
6.3      1255
6.32     1275
6.34     1317
6.36     1294
6.38     1337
6.4      1318
6.42     1332
6.44     1326
6.46     1289
6.48     1265
6.5      1283
6.52     1233
6.54     1246
6.56     1206
6.58     1265
6.6      1196
6.62     1219
6.64     1216
6.66     1182
6.68     1177
6.7      1193
6.72     1165
6.74     1217
6.76     1176
6.78     1225
6.8      1205
6.82     1226
6.84     1222
6.86     1203
6.88     1204
6.9      1194
6.92     1167
6.94     1183
6.96     1170
6.98     1175
7.0      1161
7.02     1097
7.04     1145
7.06     1122
7.08     1112
7.1      1138
7.12     1159
7.14     1201
7.16     1226
7.18     1250
7.2      1191
7.22     1157
7.24     1180
7.26     1114
7.28     1121
7.3      1151
7.32     1149
7.34     1151
7.36     1168
7.38     1173
7.4      1134
7.42     1121
7.44     1089
7.46     1111
7.48     1101
7.5      1108
7.52     1081
7.54     1093
7.56     1104
7.58     1139
7.6      1140
7.62     1176
7.64     1137
7.66     1170
7.68     1097
7.7      1092
7.72     1080
7.74     1131
7.76     1136
7.78     1221
7.8      1190
7.82     1241
7.84     1160
7.86     1194
7.88     1142
7.9      1151
7.92     1152
7.94     1207
7.96     1161
7.98     1160
8.0      1081
8.02     1036
8.04     997
8.06     1043
8.08     1055
8.1      1091
8.12     1133
8.14     1184
8.16     1135
8.18     1065
8.2      1021
8.22     965
8.24     960
8.26     954
8.28     972
8.3      1028
8.32     1088
8.34     1116
8.36     1127
8.38     1122
8.4      1165
8.42     1104
8.44     1107
8.46     1051
8.48     1036
8.5      1049
8.52     1018
8.54     1018
8.56     1059
8.58     1062
8.6      1035
8.62     1045
8.64     1027
8.66     1007
8.68     1013
8.7      1005
8.72     1039
8.74     1066
8.76     1119
8.78     1058
8.8      1073
8.82     1081
8.84     1066
8.86     1124
8.88     1089
8.9      1089
8.92     1149
8.94     1141
8.96     1151
8.98     1098
9.0      1074
9.02     1074
9.04     1114
9.06     1130
9.08     1002
9.1      1043
9.12     1010
9.14     1013
9.16     994
9.18     970
9.2      934
9.22     959
9.24     938
9.26     952
9.28     849
9.3      876
9.32     833
9.34     876
9.36     853
9.38     893
9.4      891
9.42     872
9.44     886
9.46     892
9.48     871
9.5      887
9.52     885
9.54     934
9.56     914
9.58     981
9.6      958
9.62     945
9.64     945
9.66     932
9.68     953
9.7      933
9.72     882
9.74     869
9.76     796
9.78     821
9.8      770
9.82     779
9.84     818
9.86     865
9.88     914
9.9      901
9.92     907
9.94     906
9.96     870
9.98     896
10.0     859
10.02    888
10.04    934
10.06    918
10.08    893
10.1     862
10.12    879
10.14    861
10.16    852
10.18    914
10.2     925
10.22    970
10.24    1023
10.26    1003
10.28    1029
10.3     1004
10.32    970
10.34    902
10.36    907
10.38    916
10.4     895
10.42    894
10.44    931
10.46    943
10.48    996
10.5     994
10.52    1004
10.54    969
10.56    952
10.58    948
10.6     930
10.62    898
10.64    898
10.66    932
10.68    917
10.7     889
10.72    942
10.74    916
10.76    928
10.78    932
10.8     899
10.82    896
10.84    895
10.86    941
10.88    915
10.9     908
10.92    999
10.94    994
10.96    1007
10.98    977
11.0     997
11.02    1004
11.04    982
11.06    989
11.08    985
11.1     955
11.12    977
11.14    964
11.16    961
11.18    1023
11.2     1026
11.22    1034
11.24    1057
11.26    1059
11.28    1089
11.3     1054
11.32    1053
11.34    1058
11.36    1045
11.38    1062
11.4     1024
11.42    1025
11.44    1014
11.46    1000
11.48    1001
11.5     952
11.52    941
11.54    932
11.56    971
11.58    968
11.6     992
11.62    990
11.64    966
11.66    948
11.68    938
11.7     919
11.72    964
11.74    991
11.76    1046
11.78    1054
11.8     1120
11.82    1113
11.84    1083
11.86    1063
11.88    1016
11.9     1025
11.92    1045
11.94    1064
11.96    1007
11.98    1054
12.0     1112
12.02    1073
12.04    1085
12.06    1093
12.08    1087
12.1     1139
12.12    1146
12.14    1170
12.16    1143
12.18    1186
12.2     1286
12.22    1256
12.24    1254
12.26    1279
12.28    1241
12.3     1244
12.32    1221
12.34    1217
12.36    1238
12.38    1204
12.4     1229
12.42    1146
12.44    1145
12.46    1110
12.48    1074
12.5     1129
12.52    1065
12.54    1060
12.56    1136
12.58    1090
12.6     1068
12.62    1070
12.64    1092
12.66    1079
12.68    1086
12.7     1114
12.72    1017
12.74    1046
12.76    1092
12.78    1104
12.8     1115
12.82    1118
12.84    1131
12.86    1169
12.88    1103
12.9     1093
12.92    1061
12.94    1104
12.96    1105
12.98    1127
13.0     1108
13.02    1155
13.04    1138
13.06    1165
13.08    1143
13.1     1073
13.12    1054
13.14    1126
13.16    1121
13.18    1117
13.2     1099
13.22    1131
13.24    1096
13.26    1123
13.28    1153
13.3     1118
13.32    1124
13.34    1204
13.36    1242
13.38    1190
13.4     1106
13.42    1082
13.44    1067
13.46    1040
13.48    1104
13.5     1127
13.52    1107
13.54    1193
13.56    1196
13.58    1117
13.6     1086
13.62    1095
13.64    1069
13.66    1063
13.68    1102
13.7     1114
13.72    1126
13.74    1145
13.76    1099
13.78    1092
13.8     1088
13.82    1084
13.84    1089
13.86    1103
13.88    1128
13.9     1177
13.92    1217
13.94    1177
13.96    1180
13.98    1193
14.0     1180
14.02    1168
14.04    1157
14.06    1127
14.08    1075
14.1     1095
14.12    1100
14.14    1101
14.16    1152
14.18    1225
14.2     1256
14.22    1245
14.24    1226
14.26    1252
14.28    1188
14.3     1133
14.32    1078
14.34    1096
14.36    1112
14.38    1122
14.4     1085
14.42    1106
14.44    1161
14.46    1217
14.48    1131
14.5     1053
14.52    1028
14.54    1054
14.56    984
14.58    951
14.6     972
14.62    1003
14.64    1029
14.66    1037
14.68    1060
14.7     1105
14.72    1114
14.74    1131
14.76    1144
14.78    1174
14.8     1160
14.82    1117
14.84    1155
14.86    1197
14.88    1210
14.9     1236
14.92    1337
14.94    1419
14.96    1448
14.98    1379
15.0     1339
15.02    1308
15.04    1249
15.06    1172
15.08    1082
15.1     1120
15.12    1163
15.14    1190
15.16    1229
15.18    1214
15.2     1234
15.22    1219
15.24    1163
15.26    1133
15.28    1076
15.3     1066
15.32    1054
15.34    1130
15.36    1213
15.38    1142
15.4     1071
15.42    1091
15.44    1175
15.46    1157
15.48    1109
15.5     1133
15.52    1179
15.54    1190
15.56    1178
15.58    1139
15.6     1085
15.62    1098
15.64    1196
15.66    1244
15.68    1268
15.7     1246
15.72    1247
15.74    1222
15.76    1213
15.78    1247
15.8     1238
15.82    1209
15.84    1191
15.86    1235
15.88    1290
15.9     1241
15.92    1260
15.94    1279
15.96    1367
15.98    1536
16.0     1666
16.02    1664
16.04    1635
16.06    1760
16.08    1901
16.1     1901
16.12    1955
16.14    2061
16.16    2343
16.18    2594
16.2     2732
16.22    2966
16.24    3417
16.26    3923
16.28    4416
16.3     4978
16.32    5808
16.34    6917
16.36    8358
16.38    9982
16.4     12167
16.42    15154
16.44    19059
16.46    24572
16.48    32721
16.5     43524
16.52    54640
16.54    62676
16.56    65401
16.58    62116
16.6     53574
16.62    41238
16.64    27400
16.66    15122
16.68    6865
16.7     3232
16.72    2431
16.74    2490
16.76    2578
16.78    2468
16.8     2285
16.82    2098
16.84    1962
16.86    1850
16.88    1751
16.9     1668
16.92    1679
16.94    1635
16.96    1604
16.98    1527
17.0     1541
17.02    1548
17.04    1492
17.06    1409
17.08    1388
17.1     1411
17.12    1478
17.14    1439
17.16    1373
17.18    1363
17.2     1399
17.22    1378
17.24    1288
17.26    1266
17.28    1217
17.3     1153
17.32    1118
17.34    1116
17.36    1086
17.38    1160
17.4     1228
17.42    1251
17.44    1253
17.46    1264
17.48    1246
17.5     1236
17.52    1247
17.54    1196
17.56    1086
17.58    1113
17.6     1148
17.62    1120
17.64    1060
17.66    1002
17.68    1069
17.7     1038
17.72    1028
17.74    1009
17.76    1030
17.78    1105
17.8     1132
17.82    1123
17.84    1159
17.86    1120
17.88    1163
17.9     1113
17.92    1099
17.94    1102
17.96    1129
17.98    1103
18.0     1027
18.02    1016
18.04    1087
18.06    1034
18.08    1044
18.1     1057
18.12    1028
18.14    1029
18.16    1062
18.18    1025
18.2     927
18.22    942
18.24    961
18.26    951
18.28    997
18.3     1008
18.32    1004
18.34    1001
18.36    980
18.38    880
18.4     834
18.42    832
18.44    818
18.46    870
18.48    943
18.5     994
18.52    1023
18.54    1051
18.56    1024
18.58    976
18.6     994
18.62    931
18.64    890
18.66    867
18.68    864
18.7     909
18.72    954
18.74    1009
18.76    988
18.78    955
18.8     950
18.82    931
18.84    908
18.86    839
18.88    840
18.9     881
18.92    944
18.94    934
18.96    935
18.98    929
19.0     916
19.02    879
19.04    911
19.06    915
19.08    934
19.1     895
19.12    893
19.14    859
19.16    913
19.18    922
19.2     861
19.22    795
19.24    855
19.26    868
19.28    886
19.3     849
19.32    882
19.34    904
19.36    967
19.38    913
19.4     844
19.42    756
19.44    766
19.46    810
19.48    827
19.5     820
19.52    853
19.54    898
19.56    940
19.58    886
19.6     882
19.62    816
19.64    822
19.66    838
19.68    801
19.7     752
19.72    695
19.74    699
19.76    708
19.78    701
19.8     691
19.82    646
19.84    665
19.86    712
19.88    787
19.9     780
19.92    765
19.94    782
19.96    770
19.98    756
20.0     730
20.02    676
20.04    644
20.06    674
20.08    750
20.1     757
20.12    770
20.14    758
20.16    767
20.18    769
20.2     774
20.22    750
20.24    696
20.26    690
20.28    713
20.3     709
20.32    741
20.34    721
20.36    748
20.38    761
20.4     808
20.42    848
20.44    821
20.46    812
20.48    794
20.5     767
20.52    756
20.54    701
20.56    705
20.58    719
20.6     725
20.62    706
20.64    652
20.66    690
20.68    725
20.7     746
20.72    711
20.74    691
20.76    749
20.78    799
20.8     779
20.82    740
20.84    703
20.86    744
20.88    780
20.9     789
20.92    759
20.94    673
20.96    678
20.98    669
21.0     690
21.02    665
21.04    650
21.06    681
21.08    736
21.1     817
21.12    817
21.14    732
21.16    720
21.18    699
21.2     694
21.22    652
21.24    637
21.26    610
21.28    638
21.3     676
21.32    677
21.34    691
21.36    750
21.38    781
21.4     769
21.42    760
21.44    736
21.46    645
21.48    657
21.5     629
21.52    674
21.54    625
21.56    668
21.58    598
21.6     606
21.62    624
21.64    636
21.66    579
21.68    587
21.7     557
21.72    590
21.74    553
21.76    595
21.78    516
21.8     575
21.82    638
21.84    641
21.86    639
21.88    612
21.9     651
21.92    693
21.94    731
21.96    730
21.98    631
22.0     543
22.02    539
22.04    535
22.06    512
22.08    518
22.1     582
22.12    635
22.14    627
22.16    599
22.18    513
22.2     456
22.22    491
22.24    553
22.26    514
22.28    548
22.3     550
22.32    539
22.34    543
22.36    597
22.38    620
22.4     591
22.42    600
22.44    637
22.46    639
22.48    646
22.5     656
22.52    626
22.54    614
22.56    549
22.58    514
22.6     482
22.62    516
22.64    499
22.66    521
22.68    575
22.7     632
22.72    616
22.74    593
22.76    580
22.78    664
22.8     694
22.82    697
22.84    588
22.86    572
22.88    542
22.9     523
22.92    514
22.94    558
22.96    584
22.98    606
23.0     568
23.02    565
23.04    570
23.06    545
23.08    528
23.1     569
23.12    632
23.14    652
23.16    600
23.18    560
23.2     506
23.22    558
23.24    600
23.26    567
23.28    549
23.3     537
23.32    553
23.34    544
23.36    492
23.38    453
23.4     461
23.42    565
23.44    625
23.46    623
23.48    511
23.5     448
23.52    459
23.54    545
23.56    580
23.58    577
23.6     670
23.62    722
23.64    773
23.66    683
23.68    578
23.7     469
23.72    472
23.74    516
23.76    513
23.78    490
23.8     480
23.82    474
23.84    472
23.86    451
23.88    474
23.9     480
23.92    500
23.94    588
23.96    588
23.98    614
24.0     597
24.02    617
24.04    558
24.06    534
24.08    497
24.1     436
24.12    401
24.14    481
24.16    533
24.18    652
24.2     677
24.22    639
24.24    555
24.26    527
24.28    499
24.3     513
24.32    551
24.34    556
24.36    572
24.38    623
24.4     591
24.42    529
24.44    507
24.46    533
24.48    475
24.5     498
24.52    412
24.54    461
24.56    498
24.58    588
24.6     565
24.62    589
24.64    609
24.66    624
24.68    537
24.7     524
24.72    517
24.74    678
24.76    686
24.78    686
24.8     569
24.82    551
24.84    513
24.86    505
24.88    480
24.9     487
24.92    560
24.94    572
24.96    515
24.98    481
25.0     439
25.02    486
25.04    483
25.06    489
25.08    467
25.1     459
25.12    495
25.14    439
25.16    425
25.18    424
25.2     442
25.22    491
25.24    471
25.26    505
25.28    468
25.3     460
25.32    491
25.34    486
25.36    500
25.38    505
25.4     533
25.42    519
25.44    525
25.46    561
25.48    581
25.5     567
25.52    601
25.54    634
25.56    657
25.58    645
25.6     614
25.62    565
25.64    556
25.66    569
25.68    555
25.7     511
25.72    524
25.74    554
25.76    520
25.78    493
25.8     480
25.82    452
25.84    469
25.86    492
25.88    521
25.9     543
25.92    539
25.94    561
25.96    559
25.98    554
26.0     515
26.02    513
26.04    522
26.06    531
26.08    540
26.1     502
26.12    475
26.14    485
26.16    491
26.18    459
26.2     489
26.22    543
26.24    560
26.26    548
26.28    523
26.3     492
26.32    455
26.34    472
26.36    516
26.38    496
26.4     516
26.42    507
26.44    489
26.46    439
26.48    432
26.5     467
26.52    487
26.54    572
26.56    586
26.58    578
26.6     563
26.62    608
26.64    544
26.66    522
26.68    476
26.7     467
26.72    473
26.74    503
26.76    470
26.78    465
26.8     453
26.82    529
26.84    463
26.86    458
26.88    404
26.9     467
26.92    525
26.94    604
26.96    581
26.98    531
27.0     515
27.02    512
27.04    456
27.06    431
27.08    398
27.1     422
27.12    447
27.14    516
27.16    536
27.18    550
27.2     536
27.22    513
27.24    460
27.26    447
27.28    459
27.3     440
27.32    457
27.34    480
27.36    548
27.38    542
27.4     529
27.42    486
27.44    513
27.46    584
27.48    635
27.5     649
27.52    595
27.54    586
27.56    569
27.58    499
27.6     431
27.62    351
27.64    398
27.66    443
27.68    505
27.7     579
27.72    622
27.74    656
27.76    632
27.78    564
27.8     436
27.82    340
27.84    322
27.86    336
27.88    362
27.9     396
27.92    466
27.94    559
27.96    628
27.98    622
28.0     583
28.02    510
28.04    435
28.06    419
28.08    412
28.1     389
28.12    443
28.14    521
28.16    553
28.18    588
28.2     536
28.22    485
28.24    457
28.26    502
28.28    531
28.3     502
28.32    498
28.34    463
28.36    447
28.38    420
28.4     376
28.42    458
28.44    498
28.46    581
28.48    594
28.5     545
28.52    460
28.54    389
28.56    342
28.58    363
28.6     470
28.62    565
28.64    564
28.66    572
28.68    492
28.7     416
28.72    333
28.74    297
28.76    338
28.78    439
28.8     520
28.82    560
28.84    546
28.86    497
28.88    466
28.9     474
28.92    445
28.94    407
28.96    421
28.98    414
29.0     356
29.02    372
29.04    359
29.06    359
29.08    408
29.1     446
29.12    477
29.14    510
29.16    571
29.18    536
29.2     452
29.22    425
29.24    389
29.26    391
29.28    442
29.3     443
29.32    455
29.34    452
29.36    433
29.38    386
29.4     369
29.42    384
29.44    457
29.46    479
29.48    554
29.5     483
29.52    453
29.54    432
29.56    386
29.58    423
29.6     397
29.62    371
29.64    392
29.66    337
29.68    361
29.7     307
29.72    385
29.74    437
29.76    476
29.78    565
29.8     594
29.82    622
29.84    679
29.86    627
29.88    586
29.9     504
29.92    451
29.94    384
29.96    388
29.98    392
30.0     416
30.02    476
30.04    512
30.06    536
30.08    589
30.1     570
30.12    529
30.14    500
30.16    510
30.18    479
30.2     490
30.22    479
30.24    470
30.26    518
30.28    489
30.3     410
30.32    356
30.34    309
30.36    359
30.38    444
30.4     488
30.42    473
30.44    482
30.46    510
30.48    484
30.5     485
30.52    486
30.54    483
30.56    540
30.58    551
30.6     492
30.62    486
30.64    451
30.66    500
30.68    525
30.7     462
30.72    448
30.74    436
30.76    424
30.78    442
30.8     463
30.82    538
30.84    551
30.86    534
30.88    493
30.9     390
30.92    360
30.94    396
30.96    381
30.98    444
31.0     514
31.02    582
31.04    609
31.06    585
31.08    524
31.1     386
31.12    317
31.14    311
31.16    298
31.18    376
31.2     483
31.22    573
31.24    643
31.26    641
31.28    516
31.3     391
31.32    305
31.34    279
31.36    360
31.38    415
31.4     520
31.42    560
31.44    576
31.46    544
31.48    456
31.5     454
31.52    453
31.54    461
31.56    524
31.58    487
31.6     518
31.62    489
31.64    535
31.66    560
31.68    567
31.7     634
31.72    598
31.74    507
31.76    494
31.78    402
31.8     368
31.82    368
31.84    372
31.86    402
31.88    439
31.9     420
31.92    432
31.94    431
31.96    474
31.98    541
32.0     528
32.02    531
32.04    415
32.06    360
32.08    363
32.1     312
32.12    443
32.14    499
32.16    559
32.18    645
32.2     584
32.22    529
32.24    452
32.26    440
32.28    465
32.3     472
32.32    513
32.34    468
32.36    474
32.38    463
32.4     452
32.42    471
32.44    531
32.46    620
32.48    651
32.5     648
32.52    610
32.54    601
32.56    626
32.58    591
32.6     593
32.62    567
32.64    553
32.66    564
32.68    504
32.7     515
32.72    493
32.74    494
32.76    501
32.78    473
32.8     472
32.82    468
32.84    525
32.86    597
32.88    625
32.9     702
32.92    661
32.94    656
32.96    656
32.98    616
33.0     577
33.02    596
33.04    628
33.06    580
33.08    607
33.1     586
33.12    625
33.14    693
33.16    648
33.18    672
33.2     680
33.22    736
33.24    793
33.26    788
33.28    943
33.3     1115
33.32    1349
33.34    1572
33.36    1814
33.38    2255
33.4     2985
33.42    4132
33.44    5898
33.46    8149
33.48    10791
33.5     13243
33.52    14970
33.54    15430
33.56    14588
33.58    12569
33.6     9863
33.62    6916
33.64    4409
33.66    2581
33.68    1581
33.7     1160
33.72    1098
33.74    999
33.76    925
33.78    896
33.8     793
33.82    697
33.84    698
33.86    629
33.88    651
33.9     672
33.92    674
33.94    635
33.96    581
33.98    609
34.0     516
34.02    522
34.04    566
34.06    569
34.08    615
34.1     672
34.12    693
34.14    670
34.16    653
34.18    598
34.2     581
34.22    584
34.24    617
34.26    700
34.28    738
34.3     825
34.32    874
34.34    839
34.36    803
34.38    716
34.4     705
34.42    632
34.44    610
34.46    647
34.48    643
34.5     711
34.52    751
34.54    732
34.56    747
34.58    739
34.6     722
34.62    724
34.64    693
34.66    650
34.68    619
34.7     619
34.72    581
34.74    624
34.76    708
34.78    733
34.8     760
34.82    758
34.84    691
34.86    644
34.88    639
34.9     676
34.92    704
34.94    849
34.96    1017
34.98    1198
35.0     1490
35.02    1877
35.04    2624
35.06    4139
35.08    6441
35.1     9202
35.12    11749
35.14    13583
35.16    14321
35.18    13704
35.2     11931
35.22    9361
35.24    6628
35.26    4326
35.28    2754
35.3     1864
35.32    1294
35.34    1020
35.36    888
35.38    740
35.4     694
35.42    719
35.44    746
35.46    755
35.48    768
35.5     810
35.52    723
35.54    755
35.56    747
35.58    701
35.6     641
35.62    598
35.64    593
35.66    643
35.68    649
35.7     691
35.72    733
35.74    794
35.76    773
35.78    706
35.8     592
35.82    546
35.84    540
35.86    549
35.88    585
35.9     630
35.92    708
35.94    756
35.96    757
35.98    725
36.0     665
36.02    676
36.04    623
36.06    650
36.08    703
36.1     690
36.12    729
36.14    787
36.16    822
36.18    894
36.2     1008
36.22    1116
36.24    1135
36.26    1294
36.28    1458
36.3     1633
36.32    1942
36.34    2339
36.36    2938
36.38    3915
36.4     5811
36.42    9121
36.44    14167
36.46    20157
36.48    25773
36.5     29688
36.52    31003
36.54    29434
36.56    25317
36.58    19470
36.6     13316
36.62    8155
36.64    4809
36.66    2899
36.68    1975
36.7     1527
36.72    1215
36.74    1057
36.76    972
36.78    966
36.8     970
36.82    974
36.84    1025
36.86    978
36.88    996
36.9     983
36.92    845
36.94    731
36.96    682
36.98    650
37.0     707
37.02    691
37.04    778
37.06    793
37.08    904
37.1     828
37.12    756
37.14    679
37.16    707
37.18    687
37.2     815
37.22    804
37.24    885
37.26    911
37.28    925
37.3     781
37.32    817
37.34    866
37.36    954
37.38    1045
37.4     1164
37.42    1155
37.44    1107
37.46    974
37.48    818
37.5     608
37.52    549
37.54    562
37.56    584
37.58    657
37.6     741
37.62    692
37.64    642
37.66    591
37.68    565
37.7     476
37.72    515
37.74    568
37.76    656
37.78    692
37.8     667
37.82    510
37.84    486
37.86    380
37.88    382
37.9     437
37.92    558
37.94    644
37.96    792
37.98    768
38.0     691
38.02    594
38.04    571
38.06    462
38.08    497
38.1     599
38.12    660
38.14    675
38.16    710
38.18    632
38.2     556
38.22    458
38.24    408
38.26    341
38.28    344
38.3     448
38.32    525
38.34    561
38.36    575
38.38    604
38.4     604
38.42    550
38.44    551
38.46    550
38.48    570
38.5     617
38.52    656
38.54    666
38.56    591
38.58    550
38.6     481
38.62    401
38.64    407
38.66    363
38.68    455
38.7     485
38.72    565
38.74    600
38.76    637
38.78    625
38.8     630
38.82    587
38.84    571
38.86    486
38.88    531
38.9     460
38.92    462
38.94    446
38.96    464
38.98    465
39.0     490
39.02    517
39.04    566
39.06    544
39.08    590
39.1     594
39.12    596
39.14    611
39.16    592
39.18    522
39.2     479
39.22    486
39.24    482
39.26    442
39.28    480
39.3     540
39.32    544
39.34    511
39.36    532
39.38    449
39.4     382
39.42    333
39.44    353
39.46    349
39.48    425
39.5     548
39.52    539
39.54    546
39.56    656
39.58    626
39.6     535
39.62    473
39.64    481
39.66    430
39.68    409
39.7     468
39.72    492
39.74    512
39.76    577
39.78    634
39.8     615
39.82    632
39.84    654
39.86    643
39.88    601
39.9     608
39.92    583
39.94    499
39.96    442
39.98    481
40.0     502
40.02    602
40.04    721
40.06    852
40.08    909
40.1     1024
40.12    1014
40.14    867
40.16    786
40.18    807
40.2     752
40.22    760
40.24    814
40.26    810
40.28    747
40.3     802
40.32    727
40.34    670
40.36    691
40.38    826
40.4     841
40.42    861
40.44    929
40.46    928
40.48    896
40.5     882
40.52    876
40.54    807
40.56    787
40.58    796
40.6     733
40.62    739
40.64    796
40.66    852
40.68    863
40.7     906
40.72    992
40.74    983
40.76    1032
40.78    987
40.8     932
40.82    900
40.84    842
40.86    782
40.88    708
40.9     751
40.92    819
40.94    892
40.96    1035
40.98    1186
41.0     1270
41.02    1321
41.04    1327
41.06    1330
41.08    1294
41.1     1244
41.12    1212
41.14    1200
41.16    1305
41.18    1500
41.2     1803
41.22    2059
41.24    2338
41.26    2661
41.28    2964
41.3     3299
41.32    3687
41.34    4275
41.36    5054
41.38    6176
41.4     7821
41.42    10243
41.44    14293
41.46    21573
41.48    34904
41.5     55322
41.52    79444
41.54    100801
41.56    113708
41.58    115690
41.6     106632
41.62    88557
41.64    64786
41.66    40878
41.68    22642
41.7     12447
41.72    8216
41.74    6333
41.76    4938
41.78    3849
41.8     3137
41.82    2861
41.84    2637
41.86    2632
41.88    2645
41.9     2461
41.92    2219
41.94    2039
41.96    1758
41.98    1554
42.0     1373
42.02    1314
42.04    1314
42.06    1342
42.08    1347
42.1     1243
42.12    1174
42.14    1199
42.16    1093
42.18    1069
42.2     1047
42.22    1105
42.24    1141
42.26    1084
42.28    1102
42.3     1036
42.32    973
42.34    971
42.36    963
42.38    986
42.4     965
42.42    980
42.44    991
42.46    961
42.48    953
42.5     939
42.52    925
42.54    918
42.56    941
42.58    929
42.6     882
42.62    890
42.64    855
42.66    793
42.68    695
42.7     662
42.72    629
42.74    617
42.76    682
42.78    678
42.8     732
42.82    799
42.84    799
42.86    795
42.88    802
42.9     846
42.92    854
42.94    805
42.96    793
42.98    742
43.0     709
43.02    635
43.04    665
43.06    696
43.08    757
43.1     897
43.12    977
43.14    1034
43.16    1027
43.18    966
43.2     829
43.22    712
43.24    648
43.26    586
43.28    558
43.3     641
43.32    769
43.34    856
43.36    859
43.38    821
43.4     731
43.42    708
43.44    592
43.46    562
43.48    543
43.5     596
43.52    686
43.54    701
43.56    773
43.58    820
43.6     754
43.62    754
43.64    708
43.66    686
43.68    668
43.7     645
43.72    611
43.74    543
43.76    587
43.78    625
43.8     576
43.82    620
43.84    633
43.86    654
43.88    644
43.9     633
43.92    596
43.94    553
43.96    604
43.98    659
44.0     685
44.02    732
44.04    740
44.06    796
44.08    754
44.1     765
44.12    746
44.14    712
44.16    698
44.18    673
44.2     581
44.22    537
44.24    491
44.26    536
44.28    593
44.3     662
44.32    697
44.34    759
44.36    833
44.38    788
44.4     684
44.42    625
44.44    519
44.46    462
44.48    393
44.5     349
44.52    328
44.54    431
44.56    561
44.58    600
44.6     660
44.62    725
44.64    792
44.66    767
44.68    642
44.7     576
44.72    514
44.74    494
44.76    471
44.78    521
44.8     620
44.82    804
44.84    871
44.86    908
44.88    911
44.9     879
44.92    916
44.94    926
44.96    1082
44.98    1440
45.0     1859
45.02    2272
45.04    2437
45.06    2540
45.08    2458
45.1     2182
45.12    1879
45.14    1450
45.16    1166
45.18    967
45.2     836
45.22    747
45.24    622
45.26    601
45.28    567
45.3     546
45.32    539
45.34    549
45.36    569
45.38    489
45.4     533
45.42    565
45.44    566
45.46    620
45.48    626
45.5     685
45.52    642
45.54    611
45.56    588
45.58    523
45.6     547
45.62    489
45.64    453
45.66    485
45.68    491
45.7     520
45.72    463
45.74    494
45.76    565
45.78    573
45.8     568
45.82    589
45.84    578
45.86    582
45.88    518
45.9     472
45.92    481
45.94    515
45.96    522
45.98    482
46.0     482
46.02    505
46.04    452
46.06    454
46.08    424
46.1     414
46.12    507
46.14    527
46.16    542
46.18    493
46.2     524
46.22    592
46.24    562
46.26    547
46.28    537
46.3     577
46.32    654
46.34    629
46.36    619
46.38    549
46.4     586
46.42    598
46.44    474
46.46    449
46.48    482
46.5     524
46.52    541
46.54    542
46.56    534
46.58    465
46.6     496
46.62    453
46.64    392
46.66    421
46.68    463
46.7     504
46.72    484
46.74    492
46.76    471
46.78    510
46.8     570
46.82    566
46.84    616
46.86    649
46.88    649
46.9     592
46.92    495
46.94    490
46.96    429
46.98    449
47.0     435
47.02    409
47.04    417
47.06    418
47.08    436
47.1     398
47.12    453
47.14    566
47.16    566
47.18    626
47.2     617
47.22    611
47.24    551
47.26    521
47.28    551
47.3     463
47.32    512
47.34    545
47.36    560
47.38    544
47.4     451
47.42    437
47.44    418
47.46    429
47.48    421
47.5     392
47.52    452
47.54    467
47.56    475
47.58    486
47.6     526
47.62    600
47.64    667
47.66    691
47.68    679
47.7     681
47.72    637
47.74    626
47.76    596
47.78    627
47.8     644
47.82    631
47.84    599
47.86    588
47.88    611
47.9     578
47.92    540
47.94    561
47.96    546
47.98    528
48.0     508
48.02    503
48.04    532
48.06    606
48.08    660
48.1     599
48.12    582
48.14    575
48.16    558
48.18    516
48.2     457
48.22    494
48.24    545
48.26    574
48.28    557
48.3     541
48.32    572
48.34    535
48.36    536
48.38    510
48.4     464
48.42    477
48.44    480
48.46    423
48.48    358
48.5     355
48.52    282
48.54    268
48.56    290
48.58    326
48.6     435
48.62    528
48.64    659
48.66    723
48.68    677
48.7     649
48.72    529
48.74    451
48.76    440
48.78    417
48.8     425
48.82    487
48.84    567
48.86    582
48.88    553
48.9     511
48.92    435
48.94    327
48.96    361
48.98    350
49.0     386
49.02    491
49.04    530
49.06    539
49.08    568
49.1     507
49.12    498
49.14    450
49.16    486
49.18    492
49.2     528
49.22    631
49.24    634
49.26    645
49.28    663
49.3     648
49.32    638
49.34    579
49.36    504
49.38    386
49.4     358
49.42    354
49.44    311
49.46    393
49.48    473
49.5     528
49.52    530
49.54    536
49.56    553
49.58    534
49.6     519
49.62    510
49.64    531
49.66    543
49.68    524
49.7     465
49.72    379
49.74    373
49.76    377
49.78    368
49.8     355
49.82    390
49.84    459
49.86    491
49.88    536
49.9     524
49.92    501
49.94    515
49.96    501
49.98    413
50.0     293
50.02    257
50.04    277
50.06    314
50.08    379
50.1     416
50.12    507
50.14    575
50.16    599
50.18    528
50.2     482
50.22    481
50.24    468
50.26    480
50.28    467
50.3     450
50.32    454
50.34    480
50.36    465
50.38    453
50.4     525
50.42    593
50.44    615
50.46    673
50.48    604
50.5     577
50.52    527
50.54    461
50.56    348
50.58    277
50.6     307
50.62    427
50.64    521
50.66    624
50.68    640
50.7     716
50.72    747
50.74    629
50.76    478
50.78    332
50.8     299
50.82    368
50.84    353
50.86    329
50.88    365
50.9     405
50.92    488
50.94    421
50.96    357
50.98    422
51.0     522
51.02    555
51.04    515
51.06    507
51.08    555
51.1     587
51.12    597
51.14    527
51.16    535
51.18    616
51.2     591
51.22    528
51.24    457
51.26    473
51.28    474
51.3     475
51.32    463
51.34    484
51.36    553
51.38    603
51.4     594
51.42    541
51.44    497
51.46    513
51.48    435
51.5     436
51.52    413
51.54    485
51.56    551
51.58    584
51.6     563
51.62    539
51.64    482
51.66    481
51.68    374
51.7     424
51.72    431
51.74    512
51.76    552
51.78    566
51.8     543
51.82    553
51.84    458
51.86    415
51.88    292
51.9     303
51.92    301
51.94    364
51.96    467
51.98    473
52.0     545
52.02    651
52.04    636
52.06    598
52.08    560
52.1     549
52.12    614
52.14    657
52.16    656
52.18    685
52.2     767
52.22    783
52.24    733
52.26    631
52.28    562
52.3     484
52.32    432
52.34    356
52.36    271
52.38    308
52.4     297
52.42    341
52.44    451
52.46    456
52.48    498
52.5     543
52.52    538
52.54    575
52.56    546
52.58    501
52.6     502
52.62    524
52.64    504
52.66    459
52.68    446
52.7     424
52.72    437
52.74    480
52.76    446
52.78    483
52.8     563
52.82    599
52.84    610
52.86    597
52.88    559
52.9     566
52.92    576
52.94    520
52.96    490
52.98    555
53.0     590
53.02    638
53.04    637
53.06    631
53.08    585
53.1     572
53.12    523
53.14    485
53.16    526
53.18    567
53.2     615
53.22    720
53.24    823
53.26    957
53.28    1109
53.3     1337
53.32    1665
53.34    2117
53.36    2976
53.38    4416
53.4     6317
53.42    8343
53.44    9970
53.46    10823
53.48    10830
53.5     9968
53.52    8289
53.54    6231
53.56    4376
53.58    3004
53.6     2196
53.62    1767
53.64    1476
53.66    1264
53.68    1098
53.7     980
53.72    813
53.74    705
53.76    597
53.78    506
53.8     495
53.82    521
53.84    510
53.86    540
53.88    583
53.9     642
53.92    636
53.94    577
53.96    494
53.98    443
54.0     445
54.02    423
54.04    378
54.06    377
54.08    463
54.1     559
54.12    586
54.14    594
54.16    609
54.18    636
54.2     598
54.22    513
54.24    477
54.26    445
54.28    476
54.3     502
54.32    522
54.34    580
54.36    600
54.38    597
54.4     469
54.42    377
54.44    315
54.46    246
54.48    190
54.5     215
54.52    289
54.54    385
54.56    454
54.58    554
54.6     611
54.62    647
54.64    617
54.66    592
54.68    529
54.7     524
54.72    441
54.74    368
54.76    307
54.78    267
54.8     300
54.82    335
54.84    332
54.86    383
54.88    439
54.9     473
54.92    521
54.94    561
54.96    444
54.98    360
55.0     347
55.02    274
55.04    164
55.06    164
55.08    198
55.1     268
55.12    423
55.14    529
55.16    552
55.18    613
55.2     580
55.22    507
55.24    464
55.26    430
55.28    377
55.3     302
55.32    257
55.34    289
55.36    332
55.38    286
55.4     227
55.42    323
55.44    391
55.46    459
55.48    475
55.5     427
55.52    447
55.54    497
55.56    512
55.58    433
55.6     449
55.62    545
55.64    544
55.66    608
55.68    560
55.7     573
55.72    551
55.74    523
55.76    536
55.78    490
55.8     482
55.82    421
55.84    356
55.86    309
55.88    273
55.9     286
55.92    280
55.94    296
55.96    395
55.98    470
56.0     482
56.02    521
56.04    551
56.06    532
56.08    507
56.1     478
56.12    349
56.14    287
56.16    365
56.18    431
56.2     445
56.22    597
56.24    653
56.26    735
56.28    820
56.3     769
56.32    572
56.34    505
56.36    481
56.38    380
56.4     340
56.42    358
56.44    285
56.46    338
56.48    387
56.5     383
56.52    407
56.54    494
56.56    545
56.58    625
56.6     776
56.62    772
56.64    663
56.66    640
56.68    543
56.7     507
56.72    477
56.74    443
56.76    349
56.78    386
56.8     428
56.82    351
56.84    376
56.86    438
56.88    433
56.9     491
56.92    560
56.94    589
56.96    577
56.98    611
57.0     551
57.02    483
57.04    550
57.06    523
57.08    486
57.1     507
57.12    528
57.14    495
57.16    512
57.18    543
57.2     503
57.22    521
57.24    564
57.26    517
57.28    539
57.3     586
57.32    560
57.34    571
57.36    637
57.38    657
57.4     652
57.42    621
57.44    586
57.46    505
57.48    513
57.5     490
57.52    446
57.54    474
57.56    485
57.58    529
57.6     607
57.62    666
57.64    721
57.66    765
57.68    792
57.7     816
57.72    733
57.74    652
57.76    648
57.78    619
57.8     650
57.82    711
57.84    794
57.86    885
57.88    965
57.9     1113
57.92    1108
57.94    1209
57.96    1342
57.98    1379
58.0     1535
58.02    1717
58.04    1872
58.06    2033
58.08    2380
58.1     2796
58.12    3425
58.14    4480
58.16    6202
58.18    8860
58.2     12650
58.22    17031
58.24    20923
58.26    23656
58.28    24589
58.3     23440
58.32    20507
58.34    16452
58.36    12065
58.38    8265
58.4     5650
58.42    4077
58.44    3111
58.46    2572
58.48    2188
58.5     1874
58.52    1649
58.54    1539
58.56    1424
58.58    1325
58.6     1276
58.62    1188
58.64    1121
58.66    1014
58.68    865
58.7     756
58.72    731
58.74    608
58.76    613
58.78    640
58.8     679
58.82    718
58.84    739
58.86    754
58.88    686
58.9     769
58.92    753
58.94    600
58.96    573
58.98    589
59.0     555
59.02    510
59.04    485
59.06    526
59.08    483
59.1     585
59.12    562
59.14    503
59.16    483
59.18    558
59.2     550
59.22    476
59.24    479
59.26    513
59.28    507
59.3     539
59.32    563
59.34    531
59.36    570
59.38    678
59.4     718
59.42    651
59.44    666
59.46    671
59.48    614
59.5     557
59.52    530
59.54    433
59.56    422
59.58    385
59.6     365
59.62    339
59.64    415
59.66    439
59.68    432
59.7     434
59.72    464
59.74    444
59.76    452
59.78    444
59.8     439
59.82    485
59.84    530
59.86    539
59.88    477
59.9     473
59.92    506
59.94    459
59.96    498
59.98    516
60.0     482
60.02    457
60.04    485
60.06    518
60.08    481
60.1     506
60.12    495
60.14    438
60.16    460
60.18    455
60.2     441
60.22    423
60.24    448
60.26    444
60.28    440
60.3     472
60.32    413
60.34    367
60.36    363
60.38    374
60.4     399
60.42    406
60.44    392
60.46    353
60.48    405
60.5     486
60.52    451
60.54    460
60.56    496
60.58    506
60.6     555
60.62    598
60.64    540
60.66    479
60.68    490
60.7     502
60.72    503
60.74    498
60.76    477
60.78    407
60.8     431
60.82    479
60.84    485
60.86    520
60.88    548
60.9     575
60.92    607
60.94    593
60.96    528
60.98    427
61.0     370
61.02    374
61.04    412
61.06    399
61.08    382
61.1     338
61.12    367
61.14    413
61.16    460
61.18    492
61.2     508
61.22    556
61.24    622
61.26    624
61.28    593
61.3     532
61.32    557
61.34    574
61.36    601
61.38    594
61.4     615
61.42    590
61.44    603
61.46    594
61.48    537
61.5     489
61.52    486
61.54    507
61.56    484
61.58    500
61.6     639
61.62    662
61.64    754
61.66    799
61.68    755
61.7     773
61.72    774
61.74    726
61.76    666
61.78    686
61.8     677
61.82    637
61.84    694
61.86    786
61.88    821
61.9     930
61.92    1037
61.94    1111
61.96    1276
61.98    1393
62.0     1501
62.02    1816
62.04    2330
62.06    3290
62.08    4768
62.1     6969
62.12    9831
62.14    12956
62.16    15983
62.18    18465
62.2     20053
62.22    20513
62.24    19748
62.26    17989
62.28    15672
62.3     13108
62.32    10644
62.34    8401
62.36    6444
62.38    4895
62.4     3749
62.42    2935
62.44    2322
62.46    1845
62.48    1524
62.5     1222
62.52    1051
62.54    970
62.56    846
62.58    750
62.6     723
62.62    731
62.64    751
62.66    805
62.68    790
62.7     809
62.72    837
62.74    888
62.76    911
62.78    866
62.8     835
62.82    814
62.84    704
62.86    658
62.88    566
62.9     538
62.92    490
62.94    508
62.96    501
62.98    501
63.0     507
63.02    583
63.04    584
63.06    638
63.08    645
63.1     645
63.12    624
63.14    616
63.16    547
63.18    470
63.2     380
63.22    413
63.24    425
63.26    371
63.28    399
63.3     403
63.32    401
63.34    419
63.36    460
63.38    448
63.4     443
63.42    461
63.44    513
63.46    527
63.48    614
63.5     613
63.52    572
63.54    530
63.56    532
63.58    469
63.6     465
63.62    502
63.64    464
63.66    490
63.68    569
63.7     564
63.72    564
63.74    597
63.76    590
63.78    501
63.8     495
63.82    484
63.84    350
63.86    313
63.88    332
63.9     282
63.92    333
63.94    381
63.96    432
63.98    365
64.0     342
64.02    394
64.04    458
64.06    506
64.08    575
64.1     595
64.12    635
64.14    608
64.16    634
64.18    566
64.2     501
64.22    470
64.24    448
64.26    422
64.28    434
64.3     462
64.32    451
64.34    436
64.36    491
64.38    517
64.4     530
64.42    492
64.44    486
64.46    481
64.48    505
64.5     575
64.52    581
64.54    577
64.56    610
64.58    614
64.6     654
64.62    686
64.64    716
64.66    750
64.68    850
64.7     1078
64.72    1294
64.74    1565
64.76    2041
64.78    2679
64.8     3435
64.82    4243
64.84    4942
64.86    5522
64.88    5835
64.9     5876
64.92    5523
64.94    4898
64.96    4198
64.98    3484
65.0     2821
65.02    2238
65.04    1780
65.06    1477
65.08    1169
65.1     987
65.12    879
65.14    771
65.16    680
65.18    646
65.2     620
65.22    561
65.24    492
65.26    425
65.28    364
65.3     348
65.32    368
65.34    415
65.36    423
65.38    507
65.4     513
65.42    549
65.44    594
65.46    537
65.48    522
65.5     393
65.52    333
65.54    302
65.56    210
65.58    263
65.6     253
65.62    319
65.64    430
65.66    432
65.68    488
65.7     469
65.72    433
65.74    424
65.76    400
65.78    455
65.8     469
65.82    463
65.84    519
65.86    548
65.88    609
65.9     618
65.92    606
65.94    554
65.96    446
65.98    403
66.0     363
66.02    248
66.04    233
66.06    231
66.08    297
66.1     361
66.12    434
66.14    431
66.16    414
66.18    406
66.2     402
66.22    367
66.24    411
66.26    445
66.28    478
66.3     470
66.32    484
66.34    512
66.36    453
66.38    403
66.4     386
66.42    348
66.44    318
66.46    281
66.48    264
66.5     219
66.52    301
66.54    374
66.56    391
66.58    474
66.6     474
66.62    523
66.64    463
66.66    425
66.68    428
66.7     345
66.72    277
66.74    198
66.76    135
66.78    187
66.8     154
66.82    245
66.84    287
66.86    398
66.88    465
66.9     438
66.92    393
66.94    475
66.96    440
66.98    477
67.0     484
67.02    487
67.04    460
67.06    469
67.08    448
67.1     380
67.12    332
67.14    343
67.16    281
67.18    339
67.2     403
67.22    401
67.24    403
67.26    426
67.28    448
67.3     433
67.32    421
67.34    419
67.36    392
67.38    399
67.4     399
67.42    389
67.44    382
67.46    347
67.48    407
67.5     383
67.52    395
67.54    379
67.56    349
67.58    334
67.6     323
67.62    315
67.64    335
67.66    345
67.68    373
67.7     294
67.72    308
67.74    293
67.76    308
67.78    365
67.8     355
67.82    358
67.84    403
67.86    430
67.88    437
67.9     432
67.92    458
67.94    459
67.96    506
67.98    499
68.0     396
68.02    346
68.04    252
68.06    256
68.08    267
68.1     291
68.12    329
68.14    357
68.16    442
68.18    458
68.2     512
68.22    500
68.24    401
68.26    433
68.28    433
68.3     466
68.32    451
68.34    450
68.36    465
68.38    493
68.4     507
68.42    490
68.44    455
68.46    458
68.48    471
68.5     468
68.52    400
68.54    429
68.56    414
68.58    464
68.6     536
68.62    610
68.64    609
68.66    584
68.68    609
68.7     640
68.72    667
68.74    743
68.76    851
68.78    1045
68.8     1279
68.82    1604
68.84    2042
68.86    2691
68.88    3485
68.9     4350
68.92    5118
68.94    5731
68.96    5935
68.98    5817
69.0     5280
69.02    4569
69.04    3724
69.06    2905
69.08    2147
69.1     1624
69.12    1295
69.14    1116
69.16    938
69.18    873
69.2     796
69.22    755
69.24    749
69.26    697
69.28    648
69.3     599
69.32    558
69.34    521
69.36    497
69.38    449
69.4     471
69.42    484
69.44    525
69.46    546
69.48    559
69.5     510
69.52    485
69.54    438
69.56    452
69.58    472
69.6     455
69.62    466
69.64    383
69.66    394
69.68    373
69.7     375
69.72    375
69.74    350
69.76    381
69.78    417
69.8     398
69.82    424
69.84    390
69.86    406
69.88    444
69.9     485
69.92    446
69.94    418
69.96    414
69.98    460
70.0     474
70.02    513
70.04    491
70.06    491
70.08    468
70.1     427
70.12    409
70.14    443
70.16    429
70.18    478
70.2     504
70.22    495
70.24    512
70.26    512
70.28    517
70.3     573
70.32    697
70.34    823
70.36    957
70.38    1155
70.4     1359
70.42    1527
70.44    1771
70.46    1924
70.48    2121
70.5     2257
70.52    2394
70.54    2441
70.56    2414
70.58    2277
70.6     2051
70.62    1788
70.64    1567
70.66    1322
70.68    1074
70.7     881
70.72    784
70.74    686
70.76    637
70.78    597
70.8     606
70.82    673
70.84    679
70.86    643
70.88    606
70.9     614
70.92    565
70.94    516
70.96    462
70.98    439
71.0     422
71.02    359
71.04    317
71.06    280
71.08    357
71.1     387
71.12    388
71.14    423
71.16    419
71.18    398
71.2     424
71.22    421
71.24    428
71.26    428
71.28    475
71.3     482
71.32    474
71.34    453
71.36    385
71.38    341
71.4     366
71.42    331
71.44    278
71.46    292
71.48    300
71.5     333
71.52    345
71.54    334
71.56    350
71.58    406
71.6     415
71.62    460
71.64    491
71.66    491
71.68    448
71.7     441
71.72    480
71.74    449
71.76    513
71.78    527
71.8     508
71.82    504
71.84    464
71.86    413
71.88    313
71.9     300
71.92    341
71.94    347
71.96    405
71.98    459
72.0     506
72.02    514
72.04    558
72.06    611
72.08    605
72.1     615
72.12    641
72.14    643
72.16    628
72.18    642
72.2     608
72.22    574
72.24    574
72.26    531
72.28    515
72.3     516
72.32    624
72.34    750
72.36    851
72.38    989
72.4     1122
72.42    1328
72.44    1670
72.46    2175
72.48    2924
72.5     3858
72.52    5016
72.54    6066
72.56    6893
72.58    7341
72.6     7278
72.62    6814
72.64    5976
72.66    4941
72.68    3924
72.7     3065
72.72    2399
72.74    1865
72.76    1542
72.78    1226
72.8     999
72.82    831
72.84    707
72.86    640
72.88    644
72.9     600
72.92    584
72.94    611
72.96    632
72.98    605
73.0     584
73.02    569
73.04    630
73.06    625
73.08    611
73.1     530
73.12    591
73.14    510
73.16    472
73.18    459
73.2     372
73.22    398
73.24    418
73.26    419
73.28    488
73.3     556
73.32    615
73.34    560
73.36    637
73.38    653
73.4     709
73.42    876
73.44    975
73.46    1131
73.48    1259
73.5     1304
73.52    1276
73.54    1276
73.56    1227
73.58    1102
73.6     1021
73.62    972
73.64    890
73.66    851
73.68    744
73.7     672
73.72    645
73.74    663
73.76    582
73.78    572
73.8     516
73.82    536
73.84    499
73.86    424
73.88    391
73.9     391
73.92    369
73.94    379
73.96    414
73.98    498
74.0     535
74.02    592
74.04    571
74.06    553
74.08    614
74.1     624
74.12    635
74.14    746
74.16    769
74.18    788
74.2     882
74.22    990
74.24    1200
74.26    1505
74.28    1863
74.3     2203
74.32    2483
74.34    2644
74.36    2559
74.38    2471
74.4     2368
74.42    2191
74.44    2073
74.46    1913
74.48    1735
74.5     1574
74.52    1459
74.54    1334
74.56    1251
74.58    1213
74.6     1193
74.62    1198
74.64    1262
74.66    1239
74.68    1264
74.7     1398
74.72    1622
74.74    1900
74.76    2234
74.78    2543
74.8     2837
74.82    3050
74.84    3074
74.86    2867
74.88    2657
74.9     2330
74.92    1980
74.94    1641
74.96    1326
74.98    1156
75.0     1030
75.02    901
75.04    772
75.06    673
75.08    703
75.1     591
75.12    591
75.14    530
75.16    444
75.18    434
75.2     375
75.22    371
75.24    393
75.26    446
75.28    502
75.3     442
75.32    537
75.34    512
75.36    487
75.38    496
75.4     459
75.42    449
75.44    447
75.46    428
75.48    344
75.5     316
75.52    400
75.54    356
75.56    395
75.58    441
75.6     400
75.62    393
75.64    418
75.66    414
75.68    347
75.7     390
75.72    413
75.74    390
75.76    433
75.78    448
75.8     453
75.82    521
75.84    583
75.86    554
75.88    535
75.9     488
75.92    390
75.94    307
75.96    243
75.98    170
76.0     110
76.02    144
76.04    166
76.06    160
76.08    243
76.1     242
76.12    285
76.14    378
76.16    442
76.18    502
76.2     552
76.22    658
76.24    633
76.26    565
76.28    554
76.3     481
76.32    412
76.34    409
76.36    350
76.38    315
76.4     247
76.42    223
76.44    178
76.46    201
76.48    219
76.5     207
76.52    191
76.54    297
76.56    312
76.58    285
76.6     259
76.62    299
76.64    380
76.66    419
76.68    366
76.7     391
76.72    413
76.74    483
76.76    470
76.78    419
76.8     381
76.82    402
76.84    383
76.86    387
76.88    358
76.9     409
76.92    431
76.94    412
76.96    383
76.98    336
77.0     301
77.02    327
77.04    289
77.06    318
77.08    336
77.1     415
77.12    468
77.14    443
77.16    484
77.18    495
77.2     537
77.22    577
77.24    524
77.26    520
77.28    539
77.3     585
77.32    612
77.34    631
77.36    709
77.38    833
77.4     962
77.42    1050
77.44    1163
77.46    1346
77.48    1693
77.5     2118
77.52    2747
77.54    3565
77.56    4495
77.58    5412
77.6     6159
77.62    6731
77.64    7060
77.66    7039
77.68    6808
77.7     6200
77.72    5536
77.74    4868
77.76    4154
77.78    3400
77.8     2764
77.82    2245
77.84    1824
77.86    1501
77.88    1261
77.9     1030
77.92    880
77.94    844
77.96    730
77.98    610
78.0     558
78.02    514
78.04    498
78.06    506
78.08    521
78.1     565
78.12    578
78.14    648
78.16    617
78.18    588
78.2     576
78.22    563
78.24    530
78.26    491
78.28    457
78.3     429
78.32    358
78.34    306
78.36    232
78.38    165
78.4     146
78.42    117
78.44    125
78.46    224
78.48    292
78.5     340
78.52    372
78.54    417
78.56    409
78.58    390
78.6     380
78.62    392
78.64    385
78.66    470
78.68    436
78.7     385
78.72    343
78.74    308
78.76    227
78.78    228
78.8     276
78.82    256
78.84    213
78.86    277
78.88    249
78.9     250
78.92    308
78.94    316
78.96    383
78.98    461
79.0     532
79.02    468
79.04    443
79.06    453
79.08    435
79.1     406
79.12    387
79.14    328
79.16    317
79.18    281
79.2     260
79.22    225
79.24    200
79.26    247
79.28    289
79.3     313
79.32    371
79.34    396
79.36    383
79.38    299
79.4     244
79.42    193
79.44    228
79.46    247
79.48    304
79.5     413
79.52    484
79.54    472
79.56    446
79.58    374
79.6     370
79.62    388
79.64    460
79.66    458
79.68    456
79.7     455
79.72    380
79.74    271
79.76    245
79.78    220
79.8     256
79.82    313
79.84    328
79.86    369
79.88    379
79.9     376
79.92    372
79.94    379
79.96    429
79.98    478
80.0     511
80.02    566
80.04    597
80.06    665
80.08    716
80.1     701
80.12    671
80.14    632
80.16    622
80.18    553
80.2     446
80.22    371
80.24    362
80.26    326
80.28    327
80.3     268
80.32    309
80.34    318
80.36    357
80.38    359
80.4     356
80.42    325
80.44    417
80.46    438
80.48    386
80.5     390
80.52    365
80.54    309
80.56    257
80.58    270
80.6     240
80.62    204
80.64    283
80.66    272
80.68    203
80.7     196
80.72    146
80.74    183
80.76    193
80.78    239
80.8     270
80.82    334
80.84    405
80.86    435
80.88    420
80.9     416
80.92    419
80.94    425
80.96    433
80.98    377
81.0     351
81.02    383
81.04    433
81.06    406
81.08    319
81.1     266
81.12    242
81.14    233
81.16    259
81.18    250
81.2     239
81.22    244
81.24    319
81.26    221
81.28    163
81.3     153
81.32    221
81.34    307
81.36    373
81.38    442
81.4     455
81.42    472
81.44    560
81.46    503
81.48    399
81.5     334
81.52    322
81.54    284
81.56    200
81.58    167
81.6     202
81.62    264
81.64    316
81.66    286
81.68    213
81.7     198
81.72    213
81.74    174
81.76    159
81.78    126
81.8     243
81.82    304
81.84    364
81.86    357
81.88    346
81.9     346
81.92    312
81.94    268
81.96    235
81.98    183
82.0     296
82.02    342
82.04    396
82.06    379
82.08    379
82.1     371
82.12    352
82.14    328
82.16    274
82.18    227
82.2     247
82.22    256
82.24    269
82.26    222
82.28    188
82.3     143
82.32    170
82.34    136
82.36    119
82.38    129
82.4     148
82.42    185
82.44    272
82.46    254
82.48    251
82.5     241
82.52    327
82.54    367
82.56    412
82.58    449
82.6     456
82.62    418
82.64    449
82.66    410
82.68    387
82.7     332
82.72    340
82.74    338
82.76    338
82.78    321
82.8     262
82.82    159
82.84    151
82.86    139
82.88    126
82.9     90
82.92    72
82.94    66
82.96    110
82.98    156
83.0     131
83.02    160
83.04    295
83.06    389
83.08    440
83.1     449
83.12    412
83.14    363
83.16    364
83.18    389
83.2     383
83.22    412
83.24    459
83.26    455
83.28    406
83.3     349
83.32    174
83.34    72
83.36    48
83.38    70
83.4     131
83.42    159
83.44    142
83.46    210
83.48    230
83.5     237
83.52    126
83.54    164
83.56    214
83.58    284
83.6     306
83.62    340
83.64    342
83.66    392
83.68    367
83.7     333
83.72    247
83.74    249
83.76    261
83.78    267
83.8     238
83.82    270
83.84    294
83.86    287
83.88    271
83.9     272
83.92    249
83.94    247
83.96    250
83.98    251
84.0     239
84.02    259
84.04    318
84.06    319
84.08    282
84.1     301
84.12    243
84.14    185
84.16    196
84.18    268
84.2     247
84.22    313
84.24    322
84.26    323
84.28    294
84.3     271
84.32    189
84.34    179
84.36    172
84.38    230
84.4     221
84.42    290
84.44    274
84.46    343
84.48    336
84.5     339
84.52    290
84.54    287
84.56    302
84.58    324
84.6     399
84.62    483
84.64    493
84.66    501
84.68    488
84.7     495
84.72    431
84.74    454
84.76    512
84.78    529
84.8     583
84.82    579
84.84    533
84.86    425
84.88    400
84.9     362
84.92    303
84.94    343
84.96    397
84.98    452
85.0     450
85.02    443
85.04    346
85.06    286
85.08    292
85.1     234
85.12    252
85.14    300
85.16    326
85.18    287
85.2     246
85.22    212
85.24    122
85.26    173
85.28    181
85.3     223
85.32    294
85.34    288
85.36    278
85.38    252
85.4     215
85.42    151
85.44    169
85.46    200
85.48    257
85.5     321
85.52    297
85.54    264
85.56    284
85.58    299
85.6     232
85.62    247
85.64    334
85.66    344
85.68    441
85.7     446
85.72    419
85.74    395
85.76    343
85.78    293
85.8     260
85.82    250
85.84    290
85.86    287
85.88    347
85.9     297
85.92    280
85.94    227
85.96    207
85.98    234
86.0     238
86.02    237
86.04    283
86.06    242
86.08    306
86.1     267
86.12    247
86.14    193
86.16    243
86.18    245
86.2     251
86.22    222
86.24    212
86.26    161
86.28    254
86.3     338
86.32    400
86.34    557
86.36    700
86.38    865
86.4     1052
86.42    1227
86.44    1392
86.46    1492
86.48    1656
86.5     1691
86.52    1677
86.54    1641
86.56    1430
86.58    1245
86.6     1049
86.62    861
86.64    683
86.66    534
86.68    456
86.7     314
86.72    312
86.74    263
86.76    214
86.78    197
86.8     219
86.82    243
86.84    322
86.86    333
86.88    347
86.9     324
86.92    379
86.94    321
86.96    305
86.98    226
87.0     230
87.02    232
87.04    259
87.06    212
87.08    213
87.1     218
87.12    280
87.14    284
87.16    306
87.18    266
87.2     301
87.22    289
87.24    293
87.26    229
87.28    267
87.3     244
87.32    287
87.34    281
87.36    255
87.38    184
87.4     164
87.42    143
87.44    111
87.46    77
87.48    109
87.5     158
87.52    214
87.54    258
87.56    205
87.58    180
87.6     201
87.62    228
87.64    287
87.66    355
87.68    411
87.7     491
87.72    463
87.74    495
87.76    423
87.78    345
87.8     279
87.82    263
87.84    286
87.86    302
87.88    237
87.9     207
87.92    126
87.94    122
87.96    139
87.98    133
88.0     197
88.02    203
88.04    218
88.06    244
88.08    243
88.1     222
88.12    170
88.14    151
88.16    199
88.18    237
88.2     253
88.22    187
88.24    170
88.26    168
88.28    217
88.3     255
88.32    252
88.34    243
88.36    235
88.38    246
88.4     235
88.42    223
88.44    277
88.46    252
88.48    339
88.5     412
88.52    392
88.54    398
88.56    371
88.58    303
88.6     295
88.62    320
88.64    321
88.66    213
88.68    259
88.7     247
88.72    183
88.74    129
88.76    50
88.78    29
88.8     40
88.82    86
88.84    115
88.86    153
88.88    266
88.9     270
88.92    282
88.94    286
88.96    271
88.98    303
89.0     322
89.02    362
89.04    389
89.06    409
89.08    362
89.1     263
89.12    218
89.14    123
89.16    129
89.18    154
89.2     190
89.22    241
89.24    290
89.26    321
89.28    266
89.3     250
89.32    190
89.34    160
89.36    241
89.38    322
89.4     374
89.42    429
89.44    463
89.46    448
89.48    439
89.5     415
89.52    313
89.54    263
89.56    233
89.58    246
89.6     225
89.62    247
89.64    195
89.66    132
89.68    152
89.7     152
89.72    97
89.74    118
89.76    161
89.78    228
89.8     269
89.82    272
89.84    269
89.86    279
89.88    355
89.9     347
89.92    391
89.94    433
89.96    476
89.98    474
90.0     494
