?
5.0      637
5.02     637
5.04     822
5.06     817
5.08     840
5.1      853
5.12     830
5.14     785
5.16     791
5.18     793
5.2      799
5.22     820
5.24     811
5.26     806
5.28     816
5.3      859
5.32     854
5.34     845
5.36     835
5.38     795
5.4      790
5.42     780
5.44     771
5.46     733
5.48     770
5.5      790
5.52     796
5.54     796
5.56     773
5.58     755
5.6      777
5.62     780
5.64     792
5.66     786
5.68     805
5.7      800
5.72     814
5.74     837
5.76     837
5.78     810
5.8      828
5.82     834
5.84     820
5.86     837
5.88     828
5.9      822
5.92     834
5.94     845
5.96     818
5.98     801
6.0      817
6.02     869
6.04     859
6.06     852
6.08     839
6.1      791
6.12     820
6.14     790
6.16     809
6.18     834
6.2      828
6.22     879
6.24     845
6.26     796
6.28     769
6.3      758
6.32     763
6.34     725
6.36     766
6.38     786
6.4      804
6.42     823
6.44     806
6.46     770
6.48     773
6.5      763
6.52     710
6.54     685
6.56     692
6.58     738
6.6      778
6.62     776
6.64     770
6.66     790
6.68     800
6.7      809
6.72     817
6.74     808
6.76     793
6.78     826
6.8      830
6.82     815
6.84     810
6.86     846
6.88     826
6.9      852
6.92     832
6.94     831
6.96     808
6.98     837
7.0      849
7.02     841
7.04     837
7.06     861
7.08     822
7.1      849
7.12     812
7.14     824
7.16     806
7.18     843
7.2      867
7.22     830
7.24     824
7.26     823
7.28     765
7.3      804
7.32     727
7.34     765
7.36     725
7.38     791
7.4      785
7.42     814
7.44     819
7.46     821
7.48     835
7.5      862
7.52     834
7.54     838
7.56     793
7.58     806
7.6      819
7.62     835
7.64     813
7.66     862
7.68     892
7.7      894
7.72     892
7.74     860
7.76     843
7.78     850
7.8      841
7.82     818
7.84     831
7.86     836
7.88     898
7.9      928
7.92     958
7.94     994
7.96     952
7.98     978
8.0      909
8.02     913
8.04     897
8.06     856
8.08     886
8.1      856
8.12     867
8.14     861
8.16     862
8.18     884
8.2      860
8.22     895
8.24     914
8.26     865
8.28     811
8.3      835
8.32     789
8.34     793
8.36     858
8.38     900
8.4      899
8.42     971
8.44     912
8.46     855
8.48     755
8.5      755
8.52     689
8.54     706
8.56     760
8.58     793
8.6      816
8.62     870
8.64     854
8.66     857
8.68     782
8.7      756
8.72     749
8.74     752
8.76     741
8.78     703
8.8      736
8.82     721
8.84     749
8.86     717
8.88     697
8.9      717
8.92     747
8.94     761
8.96     800
8.98     807
9.0      829
9.02     771
9.04     816
9.06     793
9.08     808
9.1      802
9.12     769
9.14     767
9.16     741
9.18     715
9.2      685
9.22     681
9.24     744
9.26     764
9.28     747
9.3      751
9.32     718
9.34     683
9.36     601
9.38     589
9.4      584
9.42     610
9.44     618
9.46     663
9.48     658
9.5      628
9.52     620
9.54     659
9.56     623
9.58     638
9.6      681
9.62     637
9.64     671
9.66     704
9.68     647
9.7      530
9.72     548
9.74     564
9.76     527
9.78     569
9.8      569
9.82     568
9.84     690
9.86     664
9.88     688
9.9      650
9.92     660
9.94     646
9.96     637
9.98     654
10.0     639
10.02    659
10.04    719
10.06    656
10.08    753
10.1     729
10.12    688
10.14    614
10.16    591
10.18    592
10.2     591
10.22    546
10.24    585
10.26    537
10.28    563
10.3     594
10.32    576
10.34    549
10.36    595
10.38    622
10.4     609
10.42    535
10.44    564
10.46    498
10.48    509
10.5     508
10.52    506
10.54    513
10.56    547
10.58    545
10.6     520
10.62    524
10.64    565
10.66    555
10.68    548
10.7     506
10.72    465
10.74    451
10.76    422
10.78    445
10.8     480
10.82    539
10.84    565
10.86    606
10.88    588
10.9     564
10.92    484
10.94    443
10.96    437
10.98    490
11.0     519
11.02    553
11.04    545
11.06    588
11.08    600
11.1     579
11.12    562
11.14    529
11.16    578
11.18    595
11.2     589
11.22    628
11.24    593
11.26    565
11.28    562
11.3     569
11.32    562
11.34    546
11.36    559
11.38    558
11.4     568
11.42    629
11.44    559
11.46    521
11.48    554
11.5     571
11.52    554
11.54    560
11.56    596
11.58    656
11.6     680
11.62    665
11.64    625
11.66    624
11.68    622
11.7     578
11.72    577
11.74    555
11.76    592
11.78    637
11.8     665
11.82    620
11.84    637
11.86    641
11.88    629
11.9     632
11.92    676
11.94    647
11.96    650
11.98    660
12.0     670
12.02    580
12.04    551
12.06    564
12.08    562
12.1     626
12.12    658
12.14    659
12.16    639
12.18    589
12.2     584
12.22    582
12.24    602
12.26    657
12.28    733
12.3     782
12.32    789
12.34    747
12.36    719
12.38    684
12.4     676
12.42    718
12.44    700
12.46    699
12.48    778
12.5     760
12.52    740
12.54    704
12.56    656
12.58    702
12.6     751
12.62    749
12.64    720
12.66    724
12.68    767
12.7     774
12.72    760
12.74    678
12.76    586
12.78    636
12.8     698
12.82    663
12.84    691
12.86    716
12.88    737
12.9     781
12.92    820
12.94    734
12.96    701
12.98    697
13.0     702
13.02    671
13.04    694
13.06    707
13.08    699
13.1     740
13.12    812
13.14    812
13.16    831
13.18    846
13.2     864
13.22    830
13.24    854
13.26    865
13.28    879
13.3     903
13.32    879
13.34    874
13.36    856
13.38    821
13.4     825
13.42    793
13.44    823
13.46    812
13.48    852
13.5     858
13.52    820
13.54    871
13.56    931
13.58    930
13.6     922
13.62    970
13.64    1005
13.66    966
13.68    966
13.7     938
13.72    940
13.74    988
13.76    973
13.78    920
13.8     901
13.82    931
13.84    933
13.86    902
13.88    899
13.9     888
13.92    930
13.94    938
13.96    902
13.98    898
14.0     954
14.02    995
14.04    975
14.06    925
14.08    942
14.1     946
14.12    962
14.14    932
14.16    880
14.18    856
14.2     917
14.22    941
14.24    888
14.26    836
14.28    920
14.3     930
14.32    961
14.34    990
14.36    997
14.38    1033
14.4     1034
14.42    997
14.44    1019
14.46    1017
14.48    1018
14.5     940
14.52    960
14.54    998
14.56    978
14.58    971
14.6     959
14.62    994
14.64    1076
14.66    1112
14.68    1092
14.7     1054
14.72    1071
14.74    1055
14.76    1024
14.78    1048
14.8     1026
14.82    1029
14.84    1090
14.86    1193
14.88    1246
14.9     1258
14.92    1340
14.94    1359
14.96    1350
14.98    1277
15.0     1162
15.02    1125
15.04    1117
15.06    1057
15.08    1037
15.1     1066
15.12    1121
15.14    1066
15.16    1086
15.18    1093
15.2     1020
15.22    1030
15.24    1065
15.26    996
15.28    1011
15.3     1001
15.32    1018
15.34    1006
15.36    1100
15.38    1110
15.4     1027
15.42    1085
15.44    1122
15.46    1050
15.48    1004
15.5     1000
15.52    1042
15.54    1065
15.56    1053
15.58    1090
15.6     1113
15.62    1137
15.64    1168
15.66    1168
15.68    1149
15.7     1121
15.72    1119
15.74    1111
15.76    1056
15.78    1072
15.8     1069
15.82    1095
15.84    1157
15.86    1222
15.88    1247
15.9     1291
15.92    1351
15.94    1360
15.96    1373
15.98    1394
16.0     1423
16.02    1446
16.04    1441
16.06    1512
16.08    1570
16.1     1686
16.12    1833
16.14    1940
16.16    2128
16.18    2369
16.2     2583
16.22    2854
16.24    3177
16.26    3635
16.28    4204
16.3     4919
16.32    5761
16.34    6741
16.36    8155
16.38    9853
16.4     11941
16.42    15130
16.44    19960
16.46    27222
16.48    37205
16.5     48109
16.52    57913
16.54    63856
16.56    63656
16.58    57231
16.6     46079
16.62    32537
16.64    19303
16.66    8975
16.68    2893
16.7     477
16.72    751
16.74    1585
16.76    1747
16.78    1736
16.8     1692
16.82    1569
16.84    1532
16.86    1470
16.88    1374
16.9     1403
16.92    1453
16.94    1420
16.96    1343
16.98    1361
17.0     1340
17.02    1267
17.04    1231
17.06    1187
17.08    1134
17.1     1135
17.12    1101
17.14    1089
17.16    1114
17.18    1128
17.2     1080
17.22    1069
17.24    1056
17.26    1086
17.28    1065
17.3     1011
17.32    920
17.34    951
17.36    958
17.38    938
17.4     915
17.42    963
17.44    967
17.46    998
17.48    965
17.5     931
17.52    915
17.54    950
17.56    924
17.58    950
17.6     954
17.62    937
17.64    896
17.66    856
17.68    818
17.7     786
17.72    778
17.74    816
17.76    839
17.78    823
17.8     833
17.82    829
17.84    838
17.86    839
17.88    812
17.9     770
17.92    785
17.94    848
17.96    816
17.98    755
18.0     758
18.02    760
18.04    756
18.06    779
18.08    723
18.1     694
18.12    732
18.14    776
18.16    669
18.18    560
18.2     561
18.22    612
18.24    679
18.26    709
18.28    659
18.3     679
18.32    718
18.34    712
18.36    661
18.38    691
18.4     772
18.42    789
18.44    836
18.46    758
18.48    659
18.5     665
18.52    692
18.54    637
18.56    666
18.58    713
18.6     732
18.62    699
18.64    743
18.66    698
18.68    686
18.7     736
18.72    787
18.74    728
18.76    709
18.78    679
18.8     671
18.82    661
18.84    634
18.86    633
18.88    655
18.9     720
18.92    734
18.94    680
18.96    646
18.98    663
19.0     654
19.02    618
19.04    549
19.06    556
19.08    595
19.1     601
19.12    543
19.14    547
19.16    591
19.18    648
19.2     681
19.22    651
19.24    600
19.26    592
19.28    621
19.3     623
19.32    623
19.34    616
19.36    637
19.38    662
19.4     624
19.42    555
19.44    528
19.46    585
19.48    588
19.5     614
19.52    614
19.54    566
19.56    527
19.58    525
19.6     507
19.62    525
19.64    543
19.66    522
19.68    492
19.7     542
19.72    479
19.74    396
19.76    360
19.78    438
19.8     489
19.82    543
19.84    528
19.86    414
19.88    418
19.9     443
19.92    424
19.94    462
19.96    474
19.98    503
20.0     479
20.02    552
20.04    553
20.06    492
20.08    478
20.1     476
20.12    477
20.14    497
20.16    495
20.18    485
20.2     435
20.22    511
20.24    527
20.26    499
20.28    478
20.3     500
20.32    497
20.34    505
20.36    495
20.38    481
20.4     486
20.42    553
20.44    607
20.46    648
20.48    648
20.5     663
20.52    628
20.54    551
20.56    442
20.58    410
20.6     426
20.62    458
20.64    573
20.66    602
20.68    549
20.7     571
20.72    591
20.74    589
20.76    567
20.78    510
20.8     501
20.82    499
20.84    570
20.86    519
20.88    502
20.9     540
20.92    628
20.94    655
20.96    605
20.98    525
21.0     523
21.02    550
21.04    544
21.06    470
21.08    480
21.1     478
21.12    513
21.14    468
21.16    403
21.18    418
21.2     456
21.22    424
21.24    382
21.26    441
21.28    469
21.3     434
21.32    453
21.34    454
21.36    524
21.38    547
21.4     521
21.42    415
21.44    423
21.46    474
21.48    449
21.5     435
21.52    484
21.54    535
21.56    599
21.58    570
21.6     499
21.62    475
21.64    449
21.66    473
21.68    448
21.7     454
21.72    448
21.74    518
21.76    476
21.78    452
21.8     407
21.82    459
21.84    491
21.86    564
21.88    540
21.9     537
21.92    467
21.94    497
21.96    459
21.98    437
22.0     411
22.02    428
22.04    428
22.06    393
22.08    357
22.1     349
22.12    311
22.14    344
22.16    411
22.18    448
22.2     461
22.22    470
22.24    471
22.26    380
22.28    330
22.3     276
22.32    288
22.34    311
22.36    393
22.38    423
22.4     402
22.42    429
22.44    483
22.46    493
22.48    464
22.5     427
22.52    416
22.54    403
22.56    388
22.58    343
22.6     315
22.62    349
22.64    393
22.66    428
22.68    437
22.7     422
22.72    371
22.74    390
22.76    386
22.78    363
22.8     376
22.82    331
22.84    295
22.86    292
22.88    298
22.9     313
22.92    335
22.94    389
22.96    396
22.98    354
23.0     300
23.02    286
23.04    334
23.06    382
23.08    400
23.1     431
23.12    450
23.14    429
23.16    358
23.18    275
23.2     227
23.22    241
23.24    282
23.26    336
23.28    342
23.3     344
23.32    386
23.34    389
23.36    385
23.38    381
23.4     375
23.42    319
23.44    362
23.46    331
23.48    303
23.5     249
23.52    273
23.54    277
23.56    353
23.58    341
23.6     335
23.62    280
23.64    328
23.66    312
23.68    361
23.7     297
23.72    320
23.74    334
23.76    441
23.78    423
23.8     376
23.82    354
23.84    354
23.86    389
23.88    390
23.9     355
23.92    350
23.94    352
23.96    396
23.98    396
24.0     393
24.02    385
24.04    320
24.06    303
24.08    287
24.1     292
24.12    324
24.14    339
24.16    353
24.18    345
24.2     363
24.22    314
24.24    285
24.26    309
24.28    405
24.3     404
24.32    394
24.34    320
24.36    305
24.38    331
24.4     381
24.42    432
24.44    427
24.46    425
24.48    411
24.5     328
24.52    248
24.54    237
24.56    285
24.58    383
24.6     457
24.62    503
24.64    453
24.66    366
24.68    326
24.7     301
24.72    328
24.74    368
24.76    359
24.78    346
24.8     299
24.82    293
24.84    269
24.86    282
24.88    275
24.9     302
24.92    372
24.94    408
24.96    404
24.98    399
25.0     373
25.02    409
25.04    414
25.06    458
25.08    406
25.1     395
25.12    353
25.14    311
25.16    301
25.18    253
25.2     253
25.22    256
25.24    323
25.26    330
25.28    291
25.3     309
25.32    364
25.34    382
25.36    422
25.38    301
25.4     278
25.42    219
25.44    205
25.46    145
25.48    180
25.5     271
25.52    398
25.54    378
25.56    420
25.58    320
25.6     298
25.62    303
25.64    322
25.66    397
25.68    460
25.7     506
25.72    479
25.74    371
25.76    293
25.78    225
25.8     185
25.82    218
25.84    218
25.86    271
25.88    246
25.9     272
25.92    270
25.94    283
25.96    258
25.98    281
26.0     249
26.02    244
26.04    204
26.06    200
26.08    171
26.1     251
26.12    272
26.14    331
26.16    338
26.18    353
26.2     321
26.22    293
26.24    230
26.26    163
26.28    139
26.3     161
26.32    156
26.34    226
26.36    219
26.38    245
26.4     281
26.42    299
26.44    334
26.46    350
26.48    321
26.5     299
26.52    300
26.54    311
26.56    265
26.58    256
26.6     262
26.62    283
26.64    316
26.66    295
26.68    236
26.7     170
26.72    145
26.74    175
26.76    195
26.78    211
26.8     206
26.82    261
26.84    228
26.86    259
26.88    299
26.9     335
26.92    343
26.94    366
26.96    361
26.98    334
27.0     307
27.02    280
27.04    245
27.06    253
27.08    275
27.1     302
27.12    275
27.14    306
27.16    287
27.18    302
27.2     319
27.22    297
27.24    356
27.26    363
27.28    325
27.3     296
27.32    294
27.34    362
27.36    365
27.38    337
27.4     275
27.42    201
27.44    222
27.46    190
27.48    177
27.5     158
27.52    203
27.54    325
27.56    325
27.58    329
27.6     303
27.62    315
27.64    321
27.66    283
27.68    262
27.7     202
27.72    197
27.74    208
27.76    171
27.78    225
27.8     294
27.82    353
27.84    347
27.86    370
27.88    319
27.9     377
27.92    359
27.94    337
27.96    270
27.98    263
28.0     260
28.02    301
28.04    326
28.06    367
28.08    364
28.1     423
28.12    417
28.14    394
28.16    357
28.18    324
28.2     284
28.22    289
28.24    268
28.26    261
28.28    239
28.3     199
28.32    198
28.34    190
28.36    219
28.38    217
28.4     266
28.42    288
28.44    305
28.46    309
28.48    258
28.5     239
28.52    229
28.54    252
28.56    263
28.58    280
28.6     320
28.62    285
28.64    252
28.66    307
28.68    269
28.7     318
28.72    335
28.74    322
28.76    296
28.78    206
28.8     186
28.82    183
28.84    235
28.86    299
28.88    249
28.9     269
28.92    196
28.94    151
28.96    154
28.98    127
29.0     253
29.02    330
29.04    342
29.06    299
29.08    261
29.1     216
29.12    187
29.14    229
29.16    263
29.18    266
29.2     306
29.22    285
29.24    245
29.26    235
29.28    211
29.3     239
29.32    288
29.34    312
29.36    343
29.38    316
29.4     294
29.42    323
29.44    284
29.46    267
29.48    238
29.5     243
29.52    270
29.54    329
29.56    353
29.58    312
29.6     280
29.62    255
29.64    194
29.66    175
29.68    194
29.7     207
29.72    280
29.74    318
29.76    308
29.78    268
29.8     310
29.82    244
29.84    225
29.86    168
29.88    130
29.9     170
29.92    166
29.94    176
29.96    244
29.98    267
30.0     350
30.02    356
30.04    320
30.06    246
30.08    214
30.1     268
30.12    277
30.14    333
30.16    433
30.18    451
30.2     450
30.22    412
30.24    305
30.26    239
30.28    311
30.3     340
30.32    425
30.34    446
30.36    420
30.38    384
30.4     338
30.42    288
30.44    255
30.46    284
30.48    330
30.5     297
30.52    286
30.54    173
30.56    106
30.58    137
30.6     184
30.62    240
30.64    330
30.66    387
30.68    370
30.7     355
30.72    243
30.74    198
30.76    212
30.78    176
30.8     151
30.82    143
30.84    151
30.86    189
30.88    273
30.9     331
30.92    348
30.94    403
30.96    390
30.98    376
31.0     322
31.02    286
31.04    276
31.06    264
31.08    278
31.1     248
31.12    184
31.14    195
31.16    224
31.18    265
31.2     306
31.22    370
31.24    349
31.26    272
31.28    242
31.3     177
31.32    148
31.34    218
31.36    268
31.38    316
31.4     375
31.42    384
31.44    312
31.46    260
31.48    203
31.5     192
31.52    254
31.54    318
31.56    377
31.58    435
31.6     389
31.62    354
31.64    312
31.66    250
31.68    248
31.7     317
31.72    362
31.74    378
31.76    306
31.78    241
31.8     145
31.82    113
31.84    148
31.86    187
31.88    282
31.9     353
31.92    351
31.94    377
31.96    380
31.98    401
32.0     444
32.02    470
32.04    476
32.06    445
32.08    435
32.1     356
32.12    346
32.14    416
32.16    450
32.18    476
32.2     490
32.22    477
32.24    515
32.26    537
32.28    520
32.3     455
32.32    439
32.34    417
32.36    339
32.38    293
32.4     325
32.42    360
32.44    432
32.46    502
32.48    486
32.5     476
32.52    414
32.54    327
32.56    242
32.58    168
32.6     217
32.62    245
32.64    257
32.66    303
32.68    341
32.7     426
32.72    456
32.74    478
32.76    429
32.78    341
32.8     337
32.82    360
32.84    351
32.86    393
32.88    464
32.9     541
32.92    564
32.94    573
32.96    448
32.98    359
33.0     337
33.02    350
33.04    346
33.06    397
33.08    435
33.1     466
33.12    485
33.14    547
33.16    538
33.18    574
33.2     654
33.22    675
33.24    676
33.26    704
33.28    724
33.3     831
33.32    1049
33.34    1476
33.36    2132
33.38    3196
33.4     4664
33.42    6522
33.44    8512
33.46    10212
33.48    11463
33.5     12362
33.52    12881
33.54    12531
33.56    11229
33.58    9322
33.6     7219
33.62    5245
33.64    3380
33.66    1797
33.68    681
33.7     279
33.72    474
33.74    584
33.76    559
33.78    552
33.8     546
33.82    556
33.84    493
33.86    454
33.88    432
33.9     381
33.92    428
33.94    472
33.96    490
33.98    523
34.0     521
34.02    501
34.04    453
34.06    450
34.08    495
34.1     520
34.12    601
34.14    608
34.16    572
34.18    551
34.2     513
34.22    489
34.24    518
34.26    551
34.28    574
34.3     606
34.32    603
34.34    575
34.36    511
34.38    518
34.4     500
34.42    505
34.44    472
34.46    485
34.48    465
34.5     447
34.52    429
34.54    430
34.56    412
34.58    439
34.6     468
34.62    476
34.64    449
34.66    439
34.68    439
34.7     480
34.72    499
34.74    485
34.76    464
34.78    431
34.8     446
34.82    417
34.84    407
34.86    425
34.88    515
34.9     625
34.92    677
34.94    706
34.96    777
34.98    930
35.0     1248
35.02    1984
35.04    3332
35.06    4965
35.08    6671
35.1     8356
35.12    10009
35.14    11262
35.16    11807
35.18    11510
35.2     10430
35.22    8924
35.24    7237
35.26    5305
35.28    3473
35.3     2119
35.32    1384
35.34    999
35.36    846
35.38    757
35.4     711
35.42    669
35.44    621
35.46    512
35.48    484
35.5     506
35.52    537
35.54    560
35.56    548
35.58    453
35.6     475
35.62    471
35.64    472
35.66    488
35.68    537
35.7     522
35.72    534
35.74    539
35.76    449
35.78    360
35.8     404
35.82    417
35.84    463
35.86    500
35.88    500
35.9     492
35.92    492
35.94    515
35.96    440
35.98    414
36.0     448
36.02    441
36.04    415
36.06    387
36.08    387
36.1     463
36.12    486
36.14    534
36.16    524
36.18    574
36.2     615
36.22    676
36.24    714
36.26    783
36.28    919
36.3     1144
36.32    1262
36.34    1561
36.36    2137
36.38    3672
36.4     6543
36.42    10425
36.44    14655
36.46    19036
36.48    23111
36.5     25986
36.52    26758
36.54    25310
36.56    21855
36.58    17527
36.6     13180
36.62    8954
36.64    5274
36.66    2841
36.68    1657
36.7     1141
36.72    1007
36.74    959
36.76    851
36.78    688
36.8     679
36.82    585
36.84    495
36.86    451
36.88    511
36.9     515
36.92    612
36.94    656
36.96    709
36.98    631
37.0     659
37.02    586
37.04    613
37.06    662
37.08    824
37.1     951
37.12    1094
37.14    1068
37.16    1092
37.18    985
37.2     851
37.22    706
37.24    669
37.26    618
37.28    628
37.3     716
37.32    874
37.34    963
37.36    1090
37.38    1140
37.4     1080
37.42    910
37.44    765
37.46    561
37.48    395
37.5     332
37.52    364
37.54    452
37.56    529
37.58    576
37.6     576
37.62    475
37.64    406
37.66    372
37.68    360
37.7     401
37.72    474
37.74    600
37.76    637
37.78    626
37.8     616
37.82    587
37.84    468
37.86    374
37.88    390
37.9     417
37.92    413
37.94    538
37.96    561
37.98    572
38.0     528
38.02    518
38.04    400
38.06    336
38.08    410
38.1     452
38.12    454
38.14    548
38.16    583
38.18    529
38.2     420
38.22    416
38.24    398
38.26    384
38.28    414
38.3     430
38.32    425
38.34    457
38.36    493
38.38    463
38.4     451
38.42    538
38.44    533
38.46    507
38.48    493
38.5     452
38.52    397
38.54    415
38.56    434
38.58    419
38.6     427
38.62    505
38.64    419
38.66    391
38.68    328
38.7     291
38.72    230
38.74    315
38.76    308
38.78    361
38.8     436
38.82    536
38.84    528
38.86    521
38.88    419
38.9     366
38.92    265
38.94    284
38.96    229
38.98    293
39.0     388
39.02    523
39.04    537
39.06    552
39.08    509
39.1     434
39.12    347
39.14    345
39.16    293
39.18    299
39.2     370
39.22    403
39.24    343
39.26    375
39.28    360
39.3     338
39.32    314
39.34    354
39.36    369
39.38    414
39.4     437
39.42    435
39.44    378
39.46    389
39.48    420
39.5     460
39.52    410
39.54    445
39.56    440
39.58    418
39.6     345
39.62    333
39.64    301
39.66    328
39.68    369
39.7     411
39.72    427
39.74    513
39.76    556
39.78    601
39.8     556
39.82    570
39.84    537
39.86    438
39.88    372
39.9     315
39.92    351
39.94    414
39.96    456
39.98    550
40.0     610
40.02    623
40.04    594
40.06    571
40.08    565
40.1     574
40.12    668
40.14    723
40.16    749
40.18    805
40.2     848
40.22    795
40.24    757
40.26    717
40.28    609
40.3     526
40.32    458
40.34    484
40.36    507
40.38    562
40.4     639
40.42    771
40.44    821
40.46    842
40.48    836
40.5     768
40.52    646
40.54    660
40.56    658
40.58    635
40.6     649
40.62    735
40.64    723
40.66    757
40.68    826
40.7     758
40.72    695
40.74    732
40.76    734
40.78    686
40.8     716
40.82    811
40.84    836
40.86    877
40.88    947
40.9     922
40.92    881
40.94    826
40.96    756
40.98    676
41.0     669
41.02    764
41.04    850
41.06    930
41.08    1052
41.1     1123
41.12    1172
41.14    1195
41.16    1206
41.18    1194
41.2     1243
41.22    1279
41.24    1347
41.26    1447
41.28    1630
41.3     1900
41.32    2305
41.34    2760
41.36    3283
41.38    3949
41.4     4706
41.42    5864
41.44    9187
41.46    18086
41.48    34470
41.5     57139
41.52    82191
41.54    103003
41.56    114330
41.58    113594
41.6     101057
41.62    79578
41.64    54380
41.66    31738
41.68    15743
41.7     7212
41.72    4246
41.74    3261
41.76    2648
41.78    1970
41.8     1583
41.82    1530
41.84    1686
41.86    1743
41.88    1861
41.9     1896
41.92    1743
41.94    1473
41.96    1250
41.98    1066
42.0     912
42.02    793
42.04    826
42.06    899
42.08    942
42.1     904
42.12    897
42.14    880
42.16    822
42.18    736
42.2     710
42.22    700
42.24    693
42.26    746
42.28    723
42.3     717
42.32    739
42.34    782
42.36    827
42.38    805
42.4     864
42.42    873
42.44    836
42.46    807
42.48    723
42.5     661
42.52    621
42.54    644
42.56    710
42.58    704
42.6     783
42.62    844
42.64    819
42.66    805
42.68    750
42.7     647
42.72    556
42.74    563
42.76    593
42.78    620
42.8     717
42.82    763
42.84    784
42.86    778
42.88    736
42.9     707
42.92    614
42.94    627
42.96    665
42.98    685
43.0     746
43.02    807
43.04    887
43.06    942
43.08    1054
43.1     1215
43.12    1303
43.14    1390
43.16    1421
43.18    1393
43.2     1252
43.22    1161
43.24    1041
43.26    912
43.28    845
43.3     807
43.32    773
43.34    682
43.36    645
43.38    645
43.4     598
43.42    653
43.44    676
43.46    670
43.48    648
43.5     606
43.52    575
43.54    495
43.56    486
43.58    515
43.6     586
43.62    602
43.64    602
43.66    593
43.68    571
43.7     530
43.72    524
43.74    455
43.76    458
43.78    515
43.8     589
43.82    582
43.84    585
43.86    616
43.88    625
43.9     617
43.92    567
43.94    511
43.96    539
43.98    574
44.0     603
44.02    576
44.04    572
44.06    541
44.08    514
44.1     534
44.12    481
44.14    488
44.16    510
44.18    600
44.2     666
44.22    664
44.24    695
44.26    656
44.28    605
44.3     587
44.32    520
44.34    417
44.36    377
44.38    436
44.4     508
44.42    567
44.44    622
44.46    675
44.48    666
44.5     637
44.52    560
44.54    503
44.56    520
44.58    517
44.6     551
44.62    509
44.64    508
44.66    504
44.68    473
44.7     409
44.72    388
44.74    446
44.76    497
44.78    531
44.8     557
44.82    554
44.84    621
44.86    612
44.88    623
44.9     611
44.92    652
44.94    765
44.96    1078
44.98    1614
45.0     2212
45.02    2765
45.04    3052
45.06    3049
45.08    2798
45.1     2292
45.12    1626
45.14    984
45.16    616
45.18    441
45.2     409
45.22    447
45.24    445
45.26    510
45.28    529
45.3     508
45.32    477
45.34    453
45.36    487
45.38    441
45.4     403
45.42    411
45.44    483
45.46    559
45.48    602
45.5     632
45.52    659
45.54    626
45.56    593
45.58    523
45.6     433
45.62    421
45.64    403
45.66    403
45.68    469
45.7     451
45.72    462
45.74    411
45.76    466
45.78    541
45.8     562
45.82    618
45.84    606
45.86    634
45.88    645
45.9     560
45.92    460
45.94    379
45.96    402
45.98    457
46.0     456
46.02    487
46.04    507
46.06    573
46.08    574
46.1     520
46.12    424
46.14    445
46.16    489
46.18    547
46.2     567
46.22    593
46.24    614
46.26    579
46.28    509
46.3     417
46.32    341
46.34    360
46.36    377
46.38    430
46.4     464
46.42    491
46.44    521
46.46    515
46.48    487
46.5     427
46.52    413
46.54    457
46.56    471
46.58    506
46.6     546
46.62    575
46.64    580
46.66    586
46.68    548
46.7     500
46.72    466
46.74    517
46.76    465
46.78    433
46.8     447
46.82    444
46.84    434
46.86    444
46.88    501
46.9     543
46.92    555
46.94    613
46.96    591
46.98    547
47.0     457
47.02    409
47.04    346
47.06    303
47.08    318
47.1     288
47.12    296
47.14    377
47.16    454
47.18    480
47.2     514
47.22    547
47.24    609
47.26    612
47.28    605
47.3     550
47.32    557
47.34    582
47.36    527
47.38    485
47.4     502
47.42    423
47.44    460
47.46    481
47.48    550
47.5     571
47.52    532
47.54    562
47.56    518
47.58    489
47.6     456
47.62    399
47.64    458
47.66    535
47.68    572
47.7     546
47.72    546
47.74    570
47.76    499
47.78    397
47.8     330
47.82    352
47.84    349
47.86    370
47.88    389
47.9     429
47.92    547
47.94    594
47.96    596
47.98    597
48.0     628
48.02    618
48.04    550
48.06    511
48.08    382
48.1     343
48.12    375
48.14    414
48.16    454
48.18    531
48.2     612
48.22    655
48.24    683
48.26    620
48.28    469
48.3     397
48.32    369
48.34    320
48.36    327
48.38    351
48.4     440
48.42    493
48.44    524
48.46    537
48.48    583
48.5     550
48.52    576
48.54    567
48.56    642
48.58    632
48.6     630
48.62    557
48.64    500
48.66    476
48.68    468
48.7     351
48.72    404
48.74    468
48.76    557
48.78    536
48.8     516
48.82    462
48.84    426
48.86    398
48.88    389
48.9     389
48.92    473
48.94    521
48.96    549
48.98    554
49.0     553
49.02    567
49.04    501
49.06    444
49.08    425
49.1     435
49.12    358
49.14    344
49.16    371
49.18    473
49.2     566
49.22    677
49.24    659
49.26    680
49.28    659
49.3     579
49.32    432
49.34    327
49.36    258
49.38    268
49.4     316
49.42    351
49.44    401
49.46    486
49.48    493
49.5     530
49.52    592
49.54    553
49.56    503
49.58    496
49.6     538
49.62    520
49.64    519
49.66    496
49.68    441
49.7     443
49.72    453
49.74    378
49.76    343
49.78    376
49.8     466
49.82    504
49.84    502
49.86    484
49.88    436
49.9     385
49.92    380
49.94    317
49.96    308
49.98    353
50.0     408
50.02    424
50.04    421
50.06    412
50.08    431
50.1     403
50.12    414
50.14    362
50.16    363
50.18    396
50.2     420
50.22    424
50.24    478
50.26    479
50.28    525
50.3     537
50.32    507
50.34    436
50.36    419
50.38    381
50.4     374
50.42    324
50.44    336
50.46    307
50.48    372
50.5     450
50.52    474
50.54    523
50.56    623
50.58    594
50.6     582
50.62    506
50.64    438
50.66    377
50.68    366
50.7     353
50.72    381
50.74    452
50.76    541
50.78    506
50.8     516
50.82    546
50.84    497
50.86    438
50.88    374
50.9     329
50.92    336
50.94    367
50.96    354
50.98    375
51.0     426
51.02    506
51.04    504
51.06    489
51.08    485
51.1     496
51.12    502
51.14    491
51.16    457
51.18    504
51.2     520
51.22    563
51.24    574
51.26    571
51.28    554
51.3     525
51.32    494
51.34    494
51.36    482
51.38    501
51.4     526
51.42    540
51.44    505
51.46    461
51.48    329
51.5     313
51.52    300
51.54    276
51.56    264
51.58    329
51.6     411
51.62    507
51.64    506
51.66    541
51.68    580
51.7     683
51.72    625
51.74    590
51.76    517
51.78    568
51.8     591
51.82    593
51.84    500
51.86    566
51.88    639
51.9     661
51.92    627
51.94    661
51.96    631
51.98    695
52.0     679
52.02    609
52.04    515
52.06    473
52.08    425
52.1     397
52.12    414
52.14    478
52.16    549
52.18    680
52.2     723
52.22    729
52.24    652
52.26    544
52.28    463
52.3     401
52.32    335
52.34    372
52.36    386
52.38    483
52.4     528
52.42    582
52.44    598
52.46    617
52.48    593
52.5     599
52.52    538
52.54    540
52.56    507
52.58    534
52.6     490
52.62    487
52.64    487
52.66    504
52.68    467
52.7     504
52.72    470
52.74    500
52.76    489
52.78    539
52.8     491
52.82    492
52.84    503
52.86    545
52.88    531
52.9     560
52.92    507
52.94    538
52.96    490
52.98    551
53.0     535
53.02    530
53.04    497
53.06    504
53.08    485
53.1     513
53.12    538
53.14    577
53.16    618
53.18    720
53.2     810
53.22    829
53.24    762
53.26    791
53.28    804
53.3     859
53.32    981
53.34    1453
53.36    2766
53.38    5276
53.4     8387
53.42    11067
53.44    12724
53.46    13121
53.48    12093
53.5     9886
53.52    6973
53.54    4012
53.56    1924
53.58    1076
53.6     865
53.62    865
53.64    859
53.66    816
53.68    797
53.7     773
53.72    832
53.74    781
53.76    764
53.78    697
53.8     600
53.82    573
53.84    445
53.86    385
53.88    342
53.9     314
53.92    424
53.94    475
53.96    552
53.98    678
54.0     723
54.02    736
54.04    702
54.06    678
54.08    565
54.1     502
54.12    441
54.14    395
54.16    436
54.18    493
54.2     454
54.22    497
54.24    572
54.26    589
54.28    555
54.3     533
54.32    452
54.34    468
54.36    447
54.38    345
54.4     292
54.42    364
54.44    436
54.46    484
54.48    548
54.5     593
54.52    606
54.54    700
54.56    666
54.58    562
54.6     522
54.62    522
54.64    463
54.66    419
54.68    404
54.7     363
54.72    395
54.74    434
54.76    402
54.78    374
54.8     393
54.82    375
54.84    341
54.86    319
54.88    335
54.9     413
54.92    536
54.94    516
54.96    567
54.98    581
55.0     553
55.02    505
55.04    470
55.06    406
55.08    339
55.1     361
55.12    386
55.14    359
55.16    446
55.18    514
55.2     521
55.22    595
55.24    641
55.26    627
55.28    590
55.3     578
55.32    477
55.34    429
55.36    380
55.38    402
55.4     356
55.42    382
55.44    383
55.46    451
55.48    568
55.5     671
55.52    728
55.54    805
55.56    823
55.58    862
55.6     768
55.62    665
55.64    486
55.66    402
55.68    376
55.7     395
55.72    377
55.74    359
55.76    427
55.78    469
55.8     434
55.82    425
55.84    395
55.86    443
55.88    560
55.9     628
55.92    616
55.94    638
55.96    663
55.98    603
56.0     507
56.02    438
56.04    385
56.06    336
56.08    375
56.1     388
56.12    360
56.14    411
56.16    461
56.18    543
56.2     631
56.22    694
56.24    645
56.26    602
56.28    648
56.3     612
56.32    497
56.34    466
56.36    389
56.38    394
56.4     391
56.42    328
56.44    282
56.46    356
56.48    467
56.5     537
56.52    596
56.54    604
56.56    573
56.58    637
56.6     620
56.62    483
56.64    407
56.66    340
56.68    297
56.7     289
56.72    270
56.74    203
56.76    320
56.78    489
56.8     615
56.82    583
56.84    588
56.86    601
56.88    649
56.9     658
56.92    586
56.94    520
56.96    541
56.98    499
57.0     461
57.02    351
57.04    293
57.06    261
57.08    372
57.1     407
57.12    479
57.14    518
57.16    553
57.18    615
57.2     718
57.22    732
57.24    668
57.26    643
57.28    609
57.3     541
57.32    479
57.34    388
57.36    369
57.38    421
57.4     476
57.42    498
57.44    518
57.46    566
57.48    567
57.5     652
57.52    712
57.54    788
57.56    839
57.58    791
57.6     721
57.62    680
57.64    593
57.66    481
57.68    388
57.7     352
57.72    377
57.74    430
57.76    482
57.78    493
57.8     544
57.82    659
57.84    772
57.86    798
57.88    849
57.9     840
57.92    884
57.94    928
57.96    952
57.98    966
58.0     1014
58.02    1113
58.04    1217
58.06    1265
58.08    1386
58.1     1594
58.12    2228
58.14    3823
58.16    6797
58.18    11309
58.2     16865
58.22    22447
58.24    26576
58.26    28183
58.28    26989
58.3     23244
58.32    17880
58.34    12208
58.36    7296
58.38    3893
58.4     2066
58.42    1450
58.44    1261
58.46    1133
58.48    974
58.5     827
58.52    755
58.54    802
58.56    848
58.58    811
58.6     762
58.62    780
58.64    816
58.66    837
58.68    765
58.7     679
58.72    621
58.74    684
58.76    676
58.78    589
58.8     549
58.82    526
58.84    526
58.86    526
58.88    575
58.9     521
58.92    525
58.94    482
58.96    460
58.98    415
59.0     404
59.02    379
59.04    348
59.06    344
59.08    410
59.1     431
59.12    499
59.14    567
59.16    663
59.18    710
59.2     741
59.22    727
59.24    692
59.26    592
59.28    488
59.3     417
59.32    379
59.34    409
59.36    368
59.38    367
59.4     395
59.42    439
59.44    593
59.46    584
59.48    606
59.5     620
59.52    658
59.54    647
59.56    540
59.58    486
59.6     363
59.62    337
59.64    346
59.66    309
59.68    292
59.7     325
59.72    379
59.74    459
59.76    577
59.78    652
59.8     662
59.82    653
59.84    603
59.86    559
59.88    456
59.9     374
59.92    360
59.94    421
59.96    445
59.98    440
60.0     481
60.02    500
60.04    510
60.06    556
60.08    517
60.1     424
60.12    435
60.14    432
60.16    397
60.18    343
60.2     354
60.22    394
60.24    469
60.26    552
60.28    565
60.3     560
60.32    589
60.34    597
60.36    578
60.38    561
60.4     571
60.42    544
60.44    588
60.46    536
60.48    541
60.5     587
60.52    584
60.54    577
60.56    557
60.58    633
60.6     645
60.62    636
60.64    642
60.66    548
60.68    489
60.7     529
60.72    465
60.74    443
60.76    363
60.78    394
60.8     390
60.82    388
60.84    462
60.86    513
60.88    557
60.9     653
60.92    648
60.94    669
60.96    625
60.98    626
61.0     522
61.02    431
61.04    422
61.06    363
61.08    378
61.1     391
61.12    325
61.14    332
61.16    382
61.18    438
61.2     423
61.22    449
61.24    519
61.26    503
61.28    556
61.3     595
61.32    543
61.34    512
61.36    505
61.38    480
61.4     442
61.42    465
61.44    516
61.46    480
61.48    503
61.5     560
61.52    542
61.54    554
61.56    579
61.58    653
61.6     671
61.62    651
61.64    665
61.66    719
61.68    715
61.7     651
61.72    607
61.74    618
61.76    616
61.78    702
61.8     731
61.82    719
61.84    746
61.86    820
61.88    790
61.9     730
61.92    744
61.94    778
61.96    742
61.98    820
62.0     1160
62.02    2159
62.04    3837
62.06    6064
62.08    8252
62.1     10089
62.12    11341
62.14    12014
62.16    12054
62.18    11833
62.2     11637
62.22    11815
62.24    12349
62.26    12910
62.28    13007
62.3     12568
62.32    11588
62.34    10340
62.36    8855
62.38    7429
62.4     6049
62.42    4698
62.44    3692
62.46    2898
62.48    2277
62.5     1782
62.52    1432
62.54    1230
62.56    1104
62.58    1106
62.6     1133
62.62    1086
62.64    1125
62.66    1161
62.68    1148
62.7     1094
62.72    1029
62.74    933
62.76    839
62.78    799
62.8     755
62.82    706
62.84    664
62.86    676
62.88    616
62.9     620
62.92    626
62.94    642
62.96    594
62.98    618
63.0     613
63.02    622
63.04    631
63.06    658
63.08    556
63.1     499
63.12    475
63.14    487
63.16    454
63.18    505
63.2     556
63.22    616
63.24    658
63.26    715
63.28    719
63.3     670
63.32    655
63.34    653
63.36    664
63.38    637
63.4     596
63.42    525
63.44    531
63.46    499
63.48    495
63.5     441
63.52    394
63.54    317
63.56    346
63.58    323
63.6     378
63.62    412
63.64    526
63.66    566
63.68    620
63.7     634
63.72    624
63.74    620
63.76    615
63.78    525
63.8     544
63.82    416
63.84    398
63.86    421
63.88    404
63.9     452
63.92    471
63.94    541
63.96    547
63.98    547
64.0     618
64.02    561
64.04    563
64.06    571
64.08    567
64.1     616
64.12    567
64.14    582
64.16    588
64.18    544
64.2     545
64.22    516
64.24    452
64.26    461
64.28    457
64.3     498
64.32    462
64.34    432
64.36    419
64.38    378
64.4     393
64.42    480
64.44    525
64.46    555
64.48    561
64.5     608
64.52    656
64.54    693
64.56    731
64.58    722
64.6     611
64.62    577
64.64    574
64.66    565
64.68    642
64.7     864
64.72    1343
64.74    1998
64.76    2602
64.78    3129
64.8     3461
64.82    3716
64.84    3917
64.86    4040
64.88    4130
64.9     4231
64.92    4347
64.94    4410
64.96    4288
64.98    3907
65.0     3423
65.02    2864
65.04    2297
65.06    1841
65.08    1506
65.1     1235
65.12    1019
65.14    872
65.16    845
65.18    711
65.2     752
65.22    729
65.24    689
65.26    594
65.28    555
65.3     462
65.32    411
65.34    369
65.36    400
65.38    408
65.4     450
65.42    474
65.44    587
65.46    581
65.48    596
65.5     528
65.52    511
65.54    471
65.56    458
65.58    424
65.6     408
65.62    386
65.64    449
65.66    435
65.68    483
65.7     485
65.72    526
65.74    515
65.76    555
65.78    543
65.8     502
65.82    424
65.84    426
65.86    391
65.88    373
65.9     320
65.92    285
65.94    200
65.96    269
65.98    220
66.0     173
66.02    228
66.04    389
66.06    480
66.08    535
66.1     595
66.12    683
66.14    638
66.16    693
66.18    576
66.2     494
66.22    389
66.24    339
66.26    265
66.28    235
66.3     291
66.32    354
66.34    343
66.36    400
66.38    416
66.4     446
66.42    395
66.44    378
66.46    358
66.48    363
66.5     385
66.52    371
66.54    354
66.56    396
66.58    449
66.6     468
66.62    449
66.64    439
66.66    421
66.68    417
66.7     420
66.72    414
66.74    389
66.76    413
66.78    403
66.8     415
66.82    409
66.84    404
66.86    468
66.88    465
66.9     477
66.92    474
66.94    500
66.96    484
66.98    498
67.0     509
67.02    512
67.04    508
67.06    500
67.08    386
67.1     372
67.12    342
67.14    332
67.16    340
67.18    403
67.2     367
67.22    375
67.24    395
67.26    368
67.28    344
67.3     361
67.32    371
67.34    404
67.36    464
67.38    467
67.4     445
67.42    434
67.44    443
67.46    399
67.48    432
67.5     459
67.52    534
67.54    538
67.56    533
67.58    543
67.6     569
67.62    591
67.64    612
67.66    608
67.68    632
67.7     542
67.72    502
67.74    449
67.76    385
67.78    354
67.8     311
67.82    334
67.84    346
67.86    347
67.88    322
67.9     339
67.92    396
67.94    451
67.96    486
67.98    528
68.0     561
68.02    555
68.04    532
68.06    495
68.08    501
68.1     519
68.12    464
68.14    445
68.16    484
68.18    482
68.2     485
68.22    433
68.24    448
68.26    433
68.28    484
68.3     450
68.32    418
68.34    448
68.36    474
68.38    505
68.4     551
68.42    539
68.44    547
68.46    549
68.48    547
68.5     529
68.52    462
68.54    473
68.56    432
68.58    455
68.6     483
68.62    529
68.64    506
68.66    565
68.68    556
68.7     578
68.72    557
68.74    647
68.76    805
68.78    1148
68.8     1689
68.82    2382
68.84    3197
68.86    4064
68.88    4841
68.9     5455
68.92    5919
68.94    6138
68.96    5990
68.98    5547
69.0     4850
69.02    3978
69.04    3136
69.06    2287
69.08    1596
69.1     1103
69.12    859
69.14    717
69.16    611
69.18    620
69.2     600
69.22    588
69.24    543
69.26    575
69.28    554
69.3     536
69.32    514
69.34    533
69.36    562
69.38    594
69.4     570
69.42    535
69.44    463
69.46    444
69.48    391
69.5     420
69.52    438
69.54    454
69.56    512
69.58    490
69.6     496
69.62    467
69.64    469
69.66    481
69.68    535
69.7     586
69.72    552
69.74    540
69.76    551
69.78    517
69.8     543
69.82    558
69.84    494
69.86    465
69.88    459
69.9     450
69.92    472
69.94    477
69.96    449
69.98    413
70.0     446
70.02    400
70.04    363
70.06    344
70.08    355
70.1     384
70.12    401
70.14    405
70.16    466
70.18    497
70.2     581
70.22    640
70.24    758
70.26    827
70.28    964
70.3     1139
70.32    1276
70.34    1461
70.36    1643
70.38    1775
70.4     1831
70.42    1890
70.44    1885
70.46    1860
70.48    1855
70.5     1775
70.52    1685
70.54    1688
70.56    1698
70.58    1750
70.6     1818
70.62    1870
70.64    1807
70.66    1624
70.68    1343
70.7     1011
70.72    803
70.74    584
70.76    486
70.78    470
70.8     555
70.82    560
70.84    541
70.86    477
70.88    409
70.9     422
70.92    426
70.94    390
70.96    447
70.98    485
71.0     484
71.02    432
71.04    376
71.06    324
71.08    307
71.1     325
71.12    333
71.14    379
71.16    419
71.18    464
71.2     483
71.22    478
71.24    404
71.26    343
71.28    328
71.3     352
71.32    350
71.34    420
71.36    464
71.38    548
71.4     600
71.42    623
71.44    597
71.46    532
71.48    497
71.5     460
71.52    347
71.54    342
71.56    276
71.58    243
71.6     298
71.62    360
71.64    437
71.66    479
71.68    512
71.7     495
71.72    525
71.74    544
71.76    522
71.78    465
71.8     445
71.82    393
71.84    356
71.86    316
71.88    292
71.9     317
71.92    326
71.94    349
71.96    407
71.98    422
72.0     448
72.02    484
72.04    500
72.06    505
72.08    571
72.1     568
72.12    531
72.14    540
72.16    525
72.18    471
72.2     440
72.22    408
72.24    370
72.26    372
72.28    427
72.3     477
72.32    547
72.34    644
72.36    680
72.38    726
72.4     897
72.42    1279
72.44    1894
72.46    2683
72.48    3520
72.5     4410
72.52    5244
72.54    6005
72.56    6440
72.58    6613
72.6     6561
72.62    6267
72.64    5728
72.66    5014
72.68    4139
72.7     3233
72.72    2460
72.74    1858
72.76    1439
72.78    1195
72.8     1019
72.82    907
72.84    846
72.86    839
72.88    766
72.9     668
72.92    660
72.94    670
72.96    609
72.98    585
73.0     531
73.02    580
73.04    594
73.06    503
73.08    504
73.1     454
73.12    438
73.14    436
73.16    365
73.18    404
73.2     476
73.22    560
73.24    575
73.26    537
73.28    667
73.3     650
73.32    640
73.34    744
73.36    796
73.38    831
73.4     907
73.42    888
73.44    849
73.46    846
73.48    869
73.5     836
73.52    859
73.54    897
73.56    892
73.58    961
73.6     1044
73.62    1009
73.64    968
73.66    909
73.68    846
73.7     772
73.72    660
73.74    550
73.76    586
73.78    638
73.8     618
73.82    590
73.84    603
73.86    597
73.88    603
73.9     569
73.92    562
73.94    629
73.96    662
73.98    545
74.0     421
74.02    424
74.04    395
74.06    337
74.08    342
74.1     355
74.12    498
74.14    600
74.16    739
74.18    934
74.2     1235
74.22    1593
74.24    1768
74.26    1899
74.28    1949
74.3     1894
74.32    1871
74.34    1749
74.36    1794
74.38    1876
74.4     2016
74.42    2095
74.44    2059
74.46    2040
74.48    1922
74.5     1734
74.52    1610
74.54    1429
74.56    1377
74.58    1279
74.6     1267
74.62    1311
74.64    1418
74.66    1634
74.68    1908
74.7     2205
74.72    2513
74.74    2730
74.76    2930
74.78    2961
74.8     2988
74.82    2953
74.84    2816
74.86    2640
74.88    2409
74.9     2130
74.92    1723
74.94    1383
74.96    1144
74.98    885
75.0     722
75.02    628
75.04    594
75.06    610
75.08    587
75.1     601
75.12    568
75.14    585
75.16    616
75.18    530
75.2     474
75.22    514
75.24    512
75.26    491
75.28    436
75.3     469
75.32    452
75.34    443
75.36    412
75.38    380
75.4     383
75.42    462
75.44    446
75.46    432
75.48    408
75.5     452
75.52    431
75.54    465
75.56    409
75.58    383
75.6     418
75.62    491
75.64    497
75.66    469
75.68    484
75.7     487
75.72    469
75.74    438
75.76    354
75.78    366
75.8     430
75.82    415
75.84    369
75.86    283
75.88    321
75.9     276
75.92    289
75.94    282
75.96    311
75.98    439
76.0     490
76.02    468
76.04    435
76.06    406
76.08    426
76.1     381
76.12    405
76.14    391
76.16    385
76.18    416
76.2     379
76.22    315
76.24    349
76.26    446
76.28    474
76.3     501
76.32    580
76.34    573
76.36    556
76.38    484
76.4     382
76.42    322
76.44    347
76.46    350
76.48    289
76.5     310
76.52    378
76.54    376
76.56    373
76.58    350
76.6     343
76.62    389
76.64    412
76.66    421
76.68    446
76.7     488
76.72    495
76.74    449
76.76    404
76.78    428
76.8     409
76.82    445
76.84    447
76.86    409
76.88    400
76.9     409
76.92    405
76.94    391
76.96    385
76.98    454
77.0     463
77.02    489
77.04    426
77.06    349
77.08    389
77.1     463
77.12    496
77.14    486
77.16    486
77.18    561
77.2     564
77.22    531
77.24    519
77.26    492
77.28    565
77.3     597
77.32    580
77.34    548
77.36    585
77.38    645
77.4     721
77.42    846
77.44    1268
77.46    1840
77.48    2579
77.5     3266
77.52    3831
77.54    4244
77.56    4498
77.58    4507
77.6     4415
77.62    4266
77.64    4443
77.66    4683
77.68    4904
77.7     5088
77.72    5148
77.74    5011
77.76    4659
77.78    4124
77.8     3568
77.82    2988
77.84    2516
77.86    2046
77.88    1636
77.9     1424
77.92    1248
77.94    1037
77.96    872
77.98    768
78.0     689
78.02    675
78.04    621
78.06    527
78.08    484
78.1     508
78.12    490
78.14    416
78.16    380
78.18    392
78.2     352
78.22    421
78.24    455
78.26    435
78.28    487
78.3     509
78.32    471
78.34    430
78.36    379
78.38    370
78.4     386
78.42    434
78.44    521
78.46    536
78.48    553
78.5     556
78.52    494
78.54    430
78.56    361
78.58    361
78.6     438
78.62    420
78.64    434
78.66    442
78.68    441
78.7     440
78.72    406
78.74    355
78.76    393
78.78    410
78.8     441
78.82    383
78.84    311
78.86    320
78.88    301
78.9     273
78.92    314
78.94    342
78.96    390
78.98    419
79.0     443
79.02    429
79.04    434
79.06    493
79.08    504
79.1     483
79.12    475
79.14    462
79.16    451
79.18    497
79.2     468
79.22    466
79.24    484
79.26    454
79.28    404
79.3     366
79.32    338
79.34    407
79.36    451
79.38    475
79.4     486
79.42    486
79.44    467
79.46    418
79.48    371
79.5     341
79.52    308
79.54    361
79.56    340
79.58    290
79.6     351
79.62    370
79.64    360
79.66    340
79.68    283
79.7     235
79.72    192
79.74    199
79.76    207
79.78    215
79.8     280
79.82    345
79.84    355
79.86    381
79.88    425
79.9     462
79.92    524
79.94    538
79.96    567
79.98    568
80.0     544
80.02    596
80.04    619
80.06    663
80.08    728
80.1     730
80.12    708
80.14    630
80.16    598
80.18    553
80.2     518
80.22    478
80.24    493
80.26    473
80.28    485
80.3     470
80.32    423
80.34    459
80.36    479
80.38    504
80.4     505
80.42    414
80.44    449
80.46    444
80.48    466
80.5     472
80.52    418
80.54    452
80.56    437
80.58    385
80.6     344
80.62    268
80.64    260
80.66    231
80.68    218
80.7     160
80.72    154
80.74    196
80.76    235
80.78    258
80.8     319
80.82    368
80.84    369
80.86    410
80.88    418
80.9     405
80.92    426
80.94    433
80.96    424
80.98    380
81.0     336
81.02    244
81.04    204
81.06    207
81.08    227
81.1     295
81.12    407
81.14    547
81.16    583
81.18    537
81.2     479
81.22    366
81.24    356
81.26    349
81.28    357
81.3     367
81.32    448
81.34    471
81.36    378
81.38    230
81.4     144
81.42    148
81.44    198
81.46    332
81.48    420
81.5     455
81.52    502
81.54    492
81.56    398
81.58    305
81.6     301
81.62    382
81.64    410
81.66    465
81.68    498
81.7     440
81.72    375
81.74    386
81.76    308
81.78    321
81.8     327
81.82    354
81.84    296
81.86    223
81.88    204
81.9     174
81.92    169
81.94    229
81.96    296
81.98    368
82.0     393
82.02    332
82.04    280
82.06    225
82.08    205
82.1     255
82.12    301
82.14    323
82.16    409
82.18    452
82.2     415
82.22    338
82.24    322
82.26    314
82.28    267
82.3     291
82.32    369
82.34    368
82.36    374
82.38    373
82.4     322
82.42    280
82.44    282
82.46    290
82.48    308
82.5     340
82.52    439
82.54    475
82.56    494
82.58    479
82.6     477
82.62    460
82.64    459
82.66    416
82.68    390
82.7     293
82.72    305
82.74    309
82.76    291
82.78    209
82.8     198
82.82    233
82.84    252
82.86    261
82.88    252
82.9     253
82.92    265
82.94    313
82.96    304
82.98    247
83.0     278
83.02    339
83.04    445
83.06    481
83.08    502
83.1     450
83.12    350
83.14    301
83.16    255
83.18    249
83.2     267
83.22    297
83.24    367
83.26    379
83.28    426
83.3     327
83.32    261
83.34    245
83.36    309
83.38    330
83.4     364
83.42    365
83.44    380
83.46    415
83.48    419
83.5     364
83.52    340
83.54    359
83.56    401
83.58    403
83.6     399
83.62    370
83.64    395
83.66    383
83.68    350
83.7     289
83.72    238
83.74    226
83.76    297
83.78    269
83.8     209
83.82    207
83.84    244
83.86    234
83.88    297
83.9     275
83.92    323
83.94    387
83.96    412
83.98    415
84.0     377
84.02    338
84.04    364
84.06    383
84.08    466
84.1     540
84.12    591
84.14    562
84.16    475
84.18    404
84.2     274
84.22    201
84.24    132
84.26    148
84.28    253
84.3     312
84.32    319
84.34    293
84.36    256
84.38    208
84.4     196
84.42    221
84.44    234
84.46    276
84.48    326
84.5     319
84.52    307
84.54    284
84.56    296
84.58    267
84.6     284
84.62    352
84.64    498
84.66    520
84.68    616
84.7     673
84.72    714
84.74    742
84.76    794
84.78    774
84.8     770
84.82    733
84.84    718
84.86    571
84.88    465
84.9     289
84.92    179
84.94    114
84.96    118
84.98    130
85.0     178
85.02    209
85.04    235
85.06    275
85.08    270
85.1     271
85.12    279
85.14    360
85.16    461
85.18    539
85.2     601
85.22    644
85.24    665
85.26    673
85.28    588
85.3     571
85.32    486
85.34    435
85.36    390
85.38    307
85.4     243
85.42    203
85.44    210
85.46    234
85.48    242
85.5     254
85.52    282
85.54    306
85.56    312
85.58    282
85.6     270
85.62    275
85.64    305
85.66    353
85.68    373
85.7     362
85.72    390
85.74    414
85.76    425
85.78    398
85.8     363
85.82    316
85.84    282
85.86    270
85.88    260
85.9     250
85.92    258
85.94    272
85.96    334
85.98    349
86.0     385
86.02    362
86.04    362
86.06    352
86.08    366
86.1     381
86.12    405
86.14    403
86.16    441
86.18    429
86.2     440
86.22    399
86.24    344
86.26    328
86.28    362
86.3     370
86.32    455
86.34    554
86.36    714
86.38    847
86.4     951
86.42    1085
86.44    1117
86.46    1210
86.48    1288
86.5     1405
86.52    1518
86.54    1508
86.56    1484
86.58    1414
86.6     1257
86.62    1116
86.64    917
86.66    821
86.68    690
86.7     641
86.72    614
86.74    555
86.76    493
86.78    466
86.8     431
86.82    418
86.84    363
86.86    339
86.88    309
86.9     321
86.92    374
86.94    444
86.96    468
86.98    492
87.0     436
87.02    393
87.04    359
87.06    320
87.08    309
87.1     340
87.12    357
87.14    369
87.16    355
87.18    355
87.2     317
87.22    318
87.24    288
87.26    236
87.28    279
87.3     305
87.32    300
87.34    281
87.36    215
87.38    200
87.4     234
87.42    238
87.44    213
87.46    200
87.48    283
87.5     283
87.52    303
87.54    323
87.56    275
87.58    301
87.6     355
87.62    439
87.64    489
87.66    433
87.68    468
87.7     453
87.72    467
87.74    477
87.76    421
87.78    399
87.8     368
87.82    354
87.84    369
87.86    303
87.88    320
87.9     326
87.92    359
87.94    384
87.96    360
87.98    366
88.0     296
88.02    236
88.04    283
88.06    248
88.08    246
88.1     257
88.12    251
88.14    246
88.16    201
88.18    179
88.2     106
88.22    80
88.24    145
88.26    174
88.28    249
88.3     324
88.32    386
88.34    461
88.36    499
88.38    496
88.4     496
88.42    434
88.44    475
88.46    459
88.48    420
88.5     444
88.52    427
88.54    419
88.56    370
88.58    297
88.6     321
88.62    240
88.64    289
88.66    330
88.68    339
88.7     432
88.72    415
88.74    401
88.76    395
88.78    354
88.8     313
88.82    259
88.84    299
88.86    306
88.88    213
88.9     275
88.92    280
88.94    300
88.96    370
88.98    329
89.0     345
89.02    390
89.04    350
89.06    267
89.08    183
89.1     208
89.12    234
89.14    264
89.16    383
89.18    369
89.2     459
89.22    526
89.24    447
89.26    377
89.28    306
89.3     211
89.32    191
89.34    156
89.36    147
89.38    100
89.4     104
89.42    223
89.44    200
89.46    253
89.48    306
89.5     328
89.52    370
89.54    430
89.56    402
89.58    434
89.6     468
89.62    509
89.64    481
89.66    532
89.68    594
89.7     510
89.72    436
89.74    389
89.76    322
89.78    298
89.8     270
89.82    194
89.84    240
89.86    285
89.88    350
89.9     275
89.92    333
89.94    253
89.96    231
89.98    254
90.0     292
