?
5.0      1126
5.02     1126
5.04     1465
5.06     1334
5.08     1377
5.1      1391
5.12     1394
5.14     1411
5.16     1457
5.18     1452
5.2      1425
5.22     1407
5.24     1393
5.26     1440
5.28     1393
5.3      1417
5.32     1413
5.34     1425
5.36     1420
5.38     1415
5.4      1383
5.42     1387
5.44     1369
5.46     1425
5.48     1378
5.5      1408
5.52     1401
5.54     1389
5.56     1408
5.58     1429
5.6      1400
5.62     1431
5.64     1413
5.66     1465
5.68     1392
5.7      1381
5.72     1381
5.74     1378
5.76     1416
5.78     1392
5.8      1379
5.82     1362
5.84     1357
5.86     1360
5.88     1375
5.9      1368
5.92     1428
5.94     1433
5.96     1425
5.98     1390
6.0      1397
6.02     1403
6.04     1381
6.06     1406
6.08     1434
6.1      1392
6.12     1434
6.14     1401
6.16     1429
6.18     1425
6.2      1461
6.22     1435
6.24     1417
6.26     1454
6.28     1419
6.3      1398
6.32     1376
6.34     1355
6.36     1371
6.38     1310
6.4      1315
6.42     1280
6.44     1310
6.46     1370
6.48     1398
6.5      1429
6.52     1452
6.54     1430
6.56     1436
6.58     1360
6.6      1357
6.62     1317
6.64     1284
6.66     1332
6.68     1294
6.7      1267
6.72     1248
6.74     1266
6.76     1330
6.78     1319
6.8      1369
6.82     1377
6.84     1381
6.86     1387
6.88     1327
6.9      1288
6.92     1258
6.94     1272
6.96     1298
6.98     1304
7.0      1276
7.02     1263
7.04     1262
7.06     1219
7.08     1204
7.1      1223
7.12     1194
7.14     1259
7.16     1273
7.18     1311
7.2      1317
7.22     1320
7.24     1327
7.26     1316
7.28     1330
7.3      1322
7.32     1290
7.34     1322
7.36     1250
7.38     1268
7.4      1234
7.42     1218
7.44     1187
7.46     1210
7.48     1201
7.5      1204
7.52     1203
7.54     1227
7.56     1224
7.58     1236
7.6      1227
7.62     1259
7.64     1207
7.66     1259
7.68     1220
7.7      1227
7.72     1194
7.74     1203
7.76     1210
7.78     1182
7.8      1195
7.82     1192
7.84     1206
7.86     1181
7.88     1164
7.9      1176
7.92     1157
7.94     1216
7.96     1244
7.98     1238
8.0      1283
8.02     1257
8.04     1279
8.06     1169
8.08     1226
8.1      1212
8.12     1163
8.14     1212
8.16     1176
8.18     1208
8.2      1187
8.22     1162
8.24     1150
8.26     1089
8.28     1122
8.3      1080
8.32     1038
8.34     1067
8.36     1115
8.38     1119
8.4      1145
8.42     1158
8.44     1170
8.46     1168
8.48     1180
8.5      1110
8.52     1119
8.54     1122
8.56     1171
8.58     1146
8.6      1159
8.62     1154
8.64     1139
8.66     1123
8.68     1128
8.7      1054
8.72     1058
8.74     1023
8.76     1063
8.78     1077
8.8      1053
8.82     1048
8.84     1014
8.86     1042
8.88     1052
8.9      1034
8.92     1027
8.94     1018
8.96     1047
8.98     1023
9.0      1033
9.02     999
9.04     964
9.06     968
9.08     983
9.1      1020
9.12     1029
9.14     988
9.16     970
9.18     915
9.2      898
9.22     862
9.24     836
9.26     882
9.28     940
9.3      974
9.32     966
9.34     1000
9.36     1012
9.38     955
9.4      876
9.42     874
9.44     850
9.46     829
9.48     789
9.5      807
9.52     817
9.54     880
9.56     889
9.58     923
9.6      919
9.62     985
9.64     993
9.66     981
9.68     985
9.7      1014
9.72     948
9.74     877
9.76     913
9.78     943
9.8      931
9.82     952
9.84     946
9.86     969
9.88     981
9.9      961
9.92     898
9.94     890
9.96     954
9.98     946
10.0     893
10.02    857
10.04    796
10.06    816
10.08    778
10.1     753
10.12    832
10.14    857
10.16    912
10.18    948
10.2     887
10.22    846
10.24    829
10.26    838
10.28    821
10.3     840
10.32    905
10.34    850
10.36    906
10.38    918
10.4     880
10.42    839
10.44    854
10.46    867
10.48    873
10.5     837
10.52    821
10.54    791
10.56    823
10.58    749
10.6     743
10.62    689
10.64    729
10.66    774
10.68    748
10.7     766
10.72    783
10.74    837
10.76    895
10.78    887
10.8     889
10.82    838
10.84    830
10.86    838
10.88    788
10.9     805
10.92    793
10.94    804
10.96    829
10.98    841
11.0     803
11.02    831
11.04    816
11.06    864
11.08    904
11.1     926
11.12    933
11.14    927
11.16    943
11.18    957
11.2     991
11.22    1068
11.24    1006
11.26    970
11.28    985
11.3     910
11.32    914
11.34    918
11.36    847
11.38    864
11.4     899
11.42    963
11.44    932
11.46    943
11.48    1046
11.5     1022
11.52    1066
11.54    1092
11.56    1037
11.58    1000
11.6     947
11.62    960
11.64    944
11.66    945
11.68    1001
11.7     980
11.72    986
11.74    1039
11.76    968
11.78    937
11.8     946
11.82    967
11.84    1004
11.86    1006
11.88    1009
11.9     987
11.92    961
11.94    963
11.96    875
11.98    943
12.0     950
12.02    964
12.04    956
12.06    996
12.08    961
12.1     922
12.12    967
12.14    993
12.16    993
12.18    1004
12.2     978
12.22    985
12.24    957
12.26    1001
12.28    954
12.3     958
12.32    991
12.34    1006
12.36    993
12.38    957
12.4     971
12.42    1017
12.44    1067
12.46    1044
12.48    1009
12.5     1019
12.52    988
12.54    948
12.56    913
12.58    953
12.6     939
12.62    983
12.64    1022
12.66    1032
12.68    1013
12.7     1024
12.72    1016
12.74    991
12.76    1014
12.78    1074
12.8     1001
12.82    1002
12.84    1020
12.86    1065
12.88    1056
12.9     1063
12.92    1073
12.94    1069
12.96    1139
12.98    1152
13.0     1089
13.02    1054
13.04    1032
13.06    1039
13.08    1031
13.1     1010
13.12    1021
13.14    990
13.16    1054
13.18    1058
13.2     1052
13.22    1058
13.24    1076
13.26    1111
13.28    1107
13.3     1140
13.32    1168
13.34    1132
13.36    1157
13.38    1147
13.4     1136
13.42    1148
13.44    1123
13.46    1131
13.48    1107
13.5     1088
13.52    1075
13.54    1130
13.56    1147
13.58    1147
13.6     1149
13.62    1110
13.64    1103
13.66    1163
13.68    1108
13.7     1016
13.72    1052
13.74    1139
13.76    1126
13.78    1192
13.8     1180
13.82    1154
13.84    1218
13.86    1286
13.88    1216
13.9     1173
13.92    1175
13.94    1165
13.96    1175
13.98    1206
14.0     1166
14.02    1131
14.04    1132
14.06    1160
14.08    1177
14.1     1157
14.12    1154
14.14    1157
14.16    1162
14.18    1134
14.2     1130
14.22    1121
14.24    1089
14.26    1147
14.28    1230
14.3     1235
14.32    1229
14.34    1195
14.36    1178
14.38    1154
14.4     1159
14.42    1128
14.44    1107
14.46    1158
14.48    1198
14.5     1183
14.52    1178
14.54    1185
14.56    1229
14.58    1215
14.6     1214
14.62    1184
14.64    1226
14.66    1249
14.68    1264
14.7     1218
14.72    1209
14.74    1225
14.76    1189
14.78    1097
14.8     1070
14.82    1052
14.84    1110
14.86    1154
14.88    1211
14.9     1289
14.92    1349
14.94    1407
14.96    1422
14.98    1419
15.0     1413
15.02    1340
15.04    1318
15.06    1294
15.08    1218
15.1     1186
15.12    1118
15.14    1110
15.16    1123
15.18    1158
15.2     1207
15.22    1227
15.24    1257
15.26    1285
15.28    1220
15.3     1225
15.32    1209
15.34    1194
15.36    1191
15.38    1223
15.4     1262
15.42    1223
15.44    1189
15.46    1136
15.48    1115
15.5     1194
15.52    1150
15.54    1136
15.56    1180
15.58    1202
15.6     1235
15.62    1245
15.64    1201
15.66    1140
15.68    1166
15.7     1207
15.72    1158
15.74    1201
15.76    1182
15.78    1193
15.8     1243
15.82    1305
15.84    1282
15.86    1281
15.88    1334
15.9     1367
15.92    1388
15.94    1454
15.96    1463
15.98    1475
16.0     1487
16.02    1600
16.04    1633
16.06    1675
16.08    1829
16.1     1932
16.12    1979
16.14    2130
16.16    2277
16.18    2330
16.2     2485
16.22    2774
16.24    3062
16.26    3541
16.28    4080
16.3     4642
16.32    5331
16.34    6322
16.36    7604
16.38    9073
16.4     10935
16.42    13314
16.44    16727
16.46    21677
16.48    28904
16.5     39053
16.52    51362
16.54    62860
16.56    69815
16.58    70059
16.6     63643
16.62    51848
16.64    37182
16.66    22440
16.68    10495
16.7     3366
16.72    1106
16.74    1422
16.76    2009
16.78    2210
16.8     2178
16.82    1978
16.84    1865
16.86    1850
16.88    1673
16.9     1521
16.92    1527
16.94    1560
16.96    1535
16.98    1496
17.0     1494
17.02    1428
17.04    1395
17.06    1362
17.08    1271
17.1     1208
17.12    1232
17.14    1261
17.16    1201
17.18    1146
17.2     1177
17.22    1186
17.24    1138
17.26    1092
17.28    1118
17.3     1125
17.32    1126
17.34    1114
17.36    1078
17.38    1068
17.4     1071
17.42    1030
17.44    998
17.46    985
17.48    1021
17.5     1027
17.52    1055
17.54    1029
17.56    1017
17.58    963
17.6     965
17.62    1000
17.64    1006
17.66    960
17.68    950
17.7     985
17.72    987
17.74    890
17.76    868
17.78    887
17.8     951
17.82    908
17.84    860
17.86    898
17.88    875
17.9     878
17.92    857
17.94    863
17.96    841
17.98    899
18.0     942
18.02    902
18.04    931
18.06    981
18.08    918
18.1     878
18.12    895
18.14    874
18.16    758
18.18    756
18.2     766
18.22    751
18.24    797
18.26    827
18.28    767
18.3     755
18.32    793
18.34    779
18.36    808
18.38    856
18.4     843
18.42    795
18.44    769
18.46    741
18.48    750
18.5     769
18.52    760
18.54    762
18.56    853
18.58    855
18.6     772
18.62    742
18.64    732
18.66    772
18.68    812
18.7     798
18.72    775
18.74    765
18.76    796
18.78    769
18.8     780
18.82    812
18.84    822
18.86    824
18.88    835
18.9     885
18.92    839
18.94    771
18.96    751
18.98    720
19.0     731
19.02    650
19.04    541
19.06    487
19.08    568
19.1     704
19.12    758
19.14    728
19.16    680
19.18    687
19.2     767
19.22    752
19.24    637
19.26    627
19.28    677
19.3     792
19.32    812
19.34    720
19.36    635
19.38    649
19.4     691
19.42    677
19.44    620
19.46    594
19.48    598
19.5     617
19.52    633
19.54    663
19.56    644
19.58    682
19.6     692
19.62    645
19.64    601
19.66    639
19.68    741
19.7     775
19.72    764
19.74    722
19.76    648
19.78    683
19.8     640
19.82    535
19.84    482
19.86    529
19.88    576
19.9     613
19.92    547
19.94    562
19.96    587
19.98    674
20.0     708
20.02    667
20.04    613
20.06    585
20.08    549
20.1     523
20.12    553
20.14    622
20.16    646
20.18    667
20.2     685
20.22    698
20.24    719
20.26    667
20.28    567
20.3     477
20.32    518
20.34    531
20.36    538
20.38    521
20.4     540
20.42    590
20.44    594
20.46    574
20.48    591
20.5     610
20.52    674
20.54    671
20.56    732
20.58    720
20.6     720
20.62    674
20.64    642
20.66    621
20.68    672
20.7     716
20.72    731
20.74    735
20.76    817
20.78    799
20.8     744
20.82    675
20.84    663
20.86    638
20.88    638
20.9     647
20.92    634
20.94    653
20.96    663
20.98    616
21.0     519
21.02    498
21.04    581
21.06    645
21.08    686
21.1     692
21.12    640
21.14    688
21.16    679
21.18    623
21.2     513
21.22    485
21.24    516
21.26    490
21.28    546
21.3     484
21.32    505
21.34    537
21.36    551
21.38    578
21.4     587
21.42    631
21.44    655
21.46    594
21.48    649
21.5     610
21.52    646
21.54    592
21.56    629
21.58    666
21.6     682
21.62    676
21.64    652
21.66    624
21.68    630
21.7     576
21.72    531
21.74    518
21.76    558
21.78    622
21.8     642
21.82    587
21.84    554
21.86    640
21.88    671
21.9     626
21.92    578
21.94    605
21.96    601
21.98    602
22.0     563
22.02    466
22.04    373
22.06    419
22.08    452
22.1     475
22.12    498
22.14    567
22.16    555
22.18    580
22.2     614
22.22    641
22.24    598
22.26    607
22.28    582
22.3     586
22.32    581
22.34    576
22.36    506
22.38    522
22.4     491
22.42    527
22.44    553
22.46    588
22.48    595
22.5     671
22.52    707
22.54    711
22.56    663
22.58    621
22.6     500
22.62    500
22.64    509
22.66    544
22.68    544
22.7     520
22.72    420
22.74    433
22.76    465
22.78    487
22.8     433
22.82    482
22.84    588
22.86    688
22.88    673
22.9     563
22.92    441
22.94    510
22.96    545
22.98    545
23.0     458
23.02    482
23.04    516
23.06    542
23.08    535
23.1     560
23.12    595
23.14    689
23.16    704
23.18    708
23.2     653
23.22    634
23.24    559
23.26    594
23.28    599
23.3     567
23.32    455
23.34    432
23.36    473
23.38    538
23.4     526
23.42    558
23.44    558
23.46    582
23.48    524
23.5     386
23.52    299
23.54    366
23.56    439
23.58    462
23.6     501
23.62    562
23.64    565
23.66    515
23.68    475
23.7     476
23.72    471
23.74    475
23.76    435
23.78    445
23.8     532
23.82    567
23.84    598
23.86    560
23.88    569
23.9     560
23.92    534
23.94    522
23.96    527
23.98    535
24.0     535
24.02    498
24.04    468
24.06    367
24.08    363
24.1     330
24.12    397
24.14    443
24.16    508
24.18    593
24.2     626
24.22    618
24.24    590
24.26    528
24.28    479
24.3     484
24.32    471
24.34    435
24.36    428
24.38    487
24.4     466
24.42    484
24.44    505
24.46    450
24.48    396
24.5     384
24.52    321
24.54    351
24.56    427
24.58    489
24.6     503
24.62    528
24.64    596
24.66    538
24.68    499
24.7     476
24.72    496
24.74    554
24.76    566
24.78    531
24.8     492
24.82    441
24.84    441
24.86    423
24.88    433
24.9     546
24.92    541
24.94    543
24.96    541
24.98    573
25.0     554
25.02    510
25.04    457
25.06    509
25.08    607
25.1     638
25.12    534
25.14    505
25.16    421
25.18    412
25.2     333
25.22    297
25.24    307
25.26    405
25.28    505
25.3     481
25.32    457
25.34    400
25.36    347
25.38    399
25.4     444
25.42    467
25.44    487
25.46    496
25.48    509
25.5     475
25.52    405
25.54    358
25.56    347
25.58    396
25.6     432
25.62    418
25.64    423
25.66    466
25.68    496
25.7     506
25.72    477
25.74    489
25.76    467
25.78    522
25.8     541
25.82    586
25.84    594
25.86    547
25.88    501
25.9     436
25.92    390
25.94    439
25.96    471
25.98    514
26.0     486
26.02    496
26.04    414
26.06    370
26.08    338
26.1     326
26.12    362
26.14    410
26.16    410
26.18    413
26.2     380
26.22    392
26.24    353
26.26    415
26.28    426
26.3     499
26.32    496
26.34    495
26.36    473
26.38    471
26.4     457
26.42    478
26.44    436
26.46    439
26.48    408
26.5     424
26.52    366
26.54    375
26.56    341
26.58    385
26.6     450
26.62    497
26.64    499
26.66    496
26.68    461
26.7     416
26.72    397
26.74    406
26.76    414
26.78    462
26.8     493
26.82    517
26.84    496
26.86    431
26.88    382
26.9     416
26.92    467
26.94    438
26.96    392
26.98    293
27.0     278
27.02    295
27.04    302
27.06    347
27.08    413
27.1     514
27.12    517
27.14    513
27.16    495
27.18    452
27.2     500
27.22    481
27.24    452
27.26    397
27.28    352
27.3     301
27.32    279
27.34    357
27.36    444
27.38    555
27.4     649
27.42    633
27.44    564
27.46    492
27.48    450
27.5     349
27.52    314
27.54    303
27.56    387
27.58    488
27.6     569
27.62    593
27.64    582
27.66    604
27.68    595
27.7     532
27.72    497
27.74    442
27.76    497
27.78    512
27.8     534
27.82    546
27.84    531
27.86    554
27.88    547
27.9     461
27.92    396
27.94    386
27.96    471
27.98    523
28.0     548
28.02    501
28.04    476
28.06    459
28.08    419
28.1     372
28.12    412
28.14    465
28.16    544
28.18    564
28.2     502
28.22    415
28.24    331
28.26    237
28.28    226
28.3     281
28.32    329
28.34    368
28.36    448
28.38    497
28.4     487
28.42    492
28.44    409
28.46    368
28.48    376
28.5     323
28.52    297
28.54    301
28.56    329
28.58    389
28.6     414
28.62    475
28.64    464
28.66    506
28.68    528
28.7     518
28.72    502
28.74    512
28.76    517
28.78    540
28.8     550
28.82    557
28.84    507
28.86    524
28.88    480
28.9     505
28.92    488
28.94    508
28.96    480
28.98    454
29.0     395
29.02    346
29.04    296
29.06    296
29.08    280
29.1     298
29.12    332
29.14    397
29.16    394
29.18    402
29.2     436
29.22    441
29.24    439
29.26    446
29.28    379
29.3     311
29.32    292
29.34    304
29.36    278
29.38    287
29.4     419
29.42    450
29.44    489
29.46    503
29.48    449
29.5     483
29.52    476
29.54    442
29.56    432
29.58    389
29.6     429
29.62    438
29.64    434
29.66    452
29.68    499
29.7     534
29.72    537
29.74    483
29.76    505
29.78    467
29.8     439
29.82    467
29.84    400
29.86    421
29.88    399
29.9     371
29.92    462
29.94    471
29.96    530
29.98    497
30.0     468
30.02    399
30.04    285
30.06    264
30.08    204
30.1     273
30.12    355
30.14    417
30.16    559
30.18    558
30.2     577
30.22    552
30.24    523
30.26    465
30.28    444
30.3     403
30.32    375
30.34    417
30.36    461
30.38    427
30.4     472
30.42    473
30.44    393
30.46    382
30.48    373
30.5     334
30.52    386
30.54    403
30.56    408
30.58    412
30.6     441
30.62    414
30.64    413
30.66    441
30.68    411
30.7     421
30.72    427
30.74    404
30.76    388
30.78    365
30.8     412
30.82    456
30.84    478
30.86    482
30.88    412
30.9     385
30.92    339
30.94    316
30.96    352
30.98    344
31.0     421
31.02    459
31.04    448
31.06    446
31.08    363
31.1     309
31.12    347
31.14    367
31.16    382
31.18    408
31.2     460
31.22    496
31.24    564
31.26    559
31.28    472
31.3     366
31.32    316
31.34    267
31.36    274
31.38    370
31.4     417
31.42    545
31.44    594
31.46    586
31.48    507
31.5     389
31.52    324
31.54    331
31.56    355
31.58    374
31.6     367
31.62    403
31.64    380
31.66    412
31.68    415
31.7     417
31.72    477
31.74    510
31.76    545
31.78    533
31.8     536
31.82    470
31.84    446
31.86    413
31.88    341
31.9     304
31.92    314
31.94    400
31.96    457
31.98    503
32.0     507
32.02    424
32.04    445
32.06    423
32.08    409
32.1     466
32.12    511
32.14    651
32.16    676
32.18    724
32.2     711
32.22    705
32.24    728
32.26    730
32.28    735
32.3     736
32.32    645
32.34    611
32.36    564
32.38    579
32.4     613
32.42    646
32.44    669
32.46    671
32.48    651
32.5     717
32.52    664
32.54    665
32.56    656
32.58    621
32.6     629
32.62    594
32.64    571
32.66    579
32.68    585
32.7     659
32.72    556
32.74    508
32.76    397
32.78    326
32.8     318
32.82    385
32.84    498
32.86    674
32.88    773
32.9     845
32.92    758
32.94    690
32.96    627
32.98    553
33.0     522
33.02    594
33.04    623
33.06    721
33.08    772
33.1     772
33.12    711
33.14    646
33.16    604
33.18    547
33.2     573
33.22    681
33.24    759
33.26    889
33.28    1043
33.3     1141
33.32    1311
33.34    1548
33.36    1888
33.38    2437
33.4     3342
33.42    4670
33.44    6297
33.46    8273
33.48    10436
33.5     12588
33.52    14444
33.54    15337
33.56    14931
33.58    13377
33.6     11045
33.62    8291
33.64    5532
33.66    3242
33.68    1665
33.7     915
33.72    747
33.74    717
33.76    690
33.78    685
33.8     671
33.82    680
33.84    698
33.86    687
33.88    666
33.9     688
33.92    650
33.94    629
33.96    617
33.98    596
34.0     636
34.02    718
34.04    786
34.06    757
34.08    705
34.1     663
34.12    557
34.14    533
34.16    479
34.18    496
34.2     594
34.22    692
34.24    786
34.26    792
34.28    782
34.3     712
34.32    659
34.34    655
34.36    558
34.38    578
34.4     616
34.42    647
34.44    688
34.46    743
34.48    780
34.5     734
34.52    723
34.54    705
34.56    633
34.58    630
34.6     643
34.62    644
34.64    642
34.66    646
34.68    609
34.7     601
34.72    591
34.74    614
34.76    630
34.78    607
34.8     652
34.82    646
34.84    615
34.86    653
34.88    702
34.9     751
34.92    731
34.94    772
34.96    760
34.98    801
35.0     937
35.02    1153
35.04    1540
35.06    2476
35.08    4135
35.1     6382
35.12    8855
35.14    11180
35.16    12848
35.18    13517
35.2     13087
35.22    11603
35.24    9341
35.26    6945
35.28    4962
35.3     3433
35.32    2382
35.34    1781
35.36    1391
35.38    1187
35.4     1059
35.42    973
35.44    893
35.46    778
35.48    765
35.5     712
35.52    711
35.54    742
35.56    675
35.58    702
35.6     624
35.62    598
35.64    622
35.66    615
35.68    626
35.7     632
35.72    668
35.74    701
35.76    681
35.78    671
35.8     676
35.82    661
35.84    692
35.86    736
35.88    690
35.9     633
35.92    665
35.94    682
35.96    677
35.98    658
36.0     694
36.02    639
36.04    690
36.06    784
36.08    726
36.1     754
36.12    828
36.14    798
36.16    754
36.18    724
36.2     704
36.22    736
36.24    849
36.26    981
36.28    1099
36.3     1289
36.32    1494
36.34    1689
36.36    1999
36.38    2440
36.4     3188
36.42    5124
36.44    8660
36.46    13647
36.48    19327
36.5     24499
36.52    28114
36.54    29450
36.56    28098
36.58    24263
36.6     18794
36.62    13311
36.64    8680
36.66    5360
36.68    3244
36.7     2027
36.72    1419
36.74    1236
36.76    1109
36.78    1104
36.8     1091
36.82    1094
36.84    1029
36.86    1007
36.88    902
36.9     878
36.92    849
36.94    839
36.96    795
36.98    795
37.0     737
37.02    763
37.04    830
37.06    915
37.08    1012
37.1     1085
37.12    1134
37.14    1165
37.16    1157
37.18    1069
37.2     966
37.22    913
37.24    854
37.26    767
37.28    760
37.3     714
37.32    735
37.34    809
37.36    942
37.38    1095
37.4     1231
37.42    1255
37.44    1224
37.46    1072
37.48    853
37.5     674
37.52    527
37.54    446
37.56    472
37.58    578
37.6     657
37.62    717
37.64    773
37.66    711
37.68    631
37.7     568
37.72    488
37.74    433
37.76    447
37.78    528
37.8     689
37.82    793
37.84    887
37.86    896
37.88    850
37.9     767
37.92    721
37.94    627
37.96    582
37.98    627
38.0     708
38.02    692
38.04    749
38.06    722
38.08    641
38.1     599
38.12    555
38.14    526
38.16    551
38.18    618
38.2     625
38.22    617
38.24    602
38.26    552
38.28    528
38.3     490
38.32    520
38.34    577
38.36    570
38.38    607
38.4     639
38.42    609
38.44    548
38.46    578
38.48    593
38.5     576
38.52    626
38.54    657
38.56    607
38.58    618
38.6     602
38.62    562
38.64    445
38.66    378
38.68    340
38.7     344
38.72    403
38.74    508
38.76    588
38.78    615
38.8     643
38.82    686
38.84    571
38.86    486
38.88    457
38.9     430
38.92    386
38.94    407
38.96    505
38.98    521
39.0     564
39.02    595
39.04    598
39.06    562
39.08    549
39.1     609
39.12    575
39.14    577
39.16    631
39.18    655
39.2     606
39.22    580
39.24    579
39.26    516
39.28    442
39.3     497
39.32    502
39.34    485
39.36    556
39.38    650
39.4     656
39.42    650
39.44    682
39.46    561
39.48    393
39.5     437
39.52    435
39.54    431
39.56    585
39.58    727
39.6     692
39.62    699
39.64    668
39.66    528
39.68    469
39.7     533
39.72    513
39.74    583
39.76    694
39.78    692
39.8     587
39.82    568
39.84    484
39.86    453
39.88    480
39.9     531
39.92    567
39.94    624
39.96    648
39.98    615
40.0     589
40.02    583
40.04    577
40.06    624
40.08    711
40.1     807
40.12    852
40.14    976
40.16    1031
40.18    1075
40.2     1099
40.22    1139
40.24    1031
40.26    969
40.28    890
40.3     797
40.32    710
40.34    708
40.36    693
40.38    691
40.4     770
40.42    858
40.44    843
40.46    889
40.48    894
40.5     934
40.52    895
40.54    883
40.56    878
40.58    808
40.6     814
40.62    787
40.64    831
40.66    875
40.68    901
40.7     928
40.72    869
40.74    876
40.76    835
40.78    786
40.8     817
40.82    832
40.84    896
40.86    904
40.88    959
40.9     957
40.92    942
40.94    970
40.96    1027
40.98    1042
41.0     1109
41.02    1146
41.04    1103
41.06    1058
41.08    1153
41.1     1213
41.12    1227
41.14    1325
41.16    1422
41.18    1399
41.2     1450
41.22    1545
41.24    1592
41.26    1718
41.28    2020
41.3     2303
41.32    2610
41.34    3057
41.36    3546
41.38    4094
41.4     4900
41.42    5987
41.44    7751
41.46    10804
41.48    18263
41.5     33935
41.52    58242
41.54    85200
41.56    107531
41.58    119948
41.6     120288
41.62    108603
41.64    87229
41.66    60257
41.68    35040
41.7     17836
41.72    9548
41.74    6152
41.76    4507
41.78    3311
41.8     2498
41.82    2108
41.84    2121
41.86    2201
41.88    2274
41.9     2303
41.92    2203
41.94    2001
41.96    1707
41.98    1471
42.0     1232
42.02    1076
42.04    1039
42.06    1124
42.08    1243
42.1     1358
42.12    1439
42.14    1445
42.16    1329
42.18    1186
42.2     1049
42.22    938
42.24    865
42.26    906
42.28    940
42.3     1020
42.32    1034
42.34    1035
42.36    1029
42.38    962
42.4     943
42.42    984
42.44    990
42.46    1008
42.48    982
42.5     994
42.52    952
42.54    901
42.56    859
42.58    777
42.6     745
42.62    759
42.64    790
42.66    769
42.68    760
42.7     755
42.72    851
42.74    854
42.76    829
42.78    808
42.8     848
42.82    824
42.84    798
42.86    800
42.88    761
42.9     760
42.92    826
42.94    844
42.96    846
42.98    843
43.0     875
43.02    863
43.04    860
43.06    950
43.08    1055
43.1     1271
43.12    1543
43.14    1738
43.16    1798
43.18    1800
43.2     1706
43.22    1513
43.24    1224
43.26    972
43.28    829
43.3     812
43.32    809
43.34    772
43.36    807
43.38    852
43.4     814
43.42    795
43.44    750
43.46    714
43.48    674
43.5     738
43.52    694
43.54    677
43.56    640
43.58    581
43.6     590
43.62    638
43.64    670
43.66    653
43.68    615
43.7     641
43.72    590
43.74    576
43.76    574
43.78    619
43.8     714
43.82    777
43.84    841
43.86    870
43.88    834
43.9     771
43.92    696
43.94    618
43.96    559
43.98    488
44.0     508
44.02    587
44.04    681
44.06    726
44.08    749
44.1     733
44.12    707
44.14    620
44.16    539
44.18    554
44.2     567
44.22    675
44.24    729
44.26    707
44.28    753
44.3     778
44.32    809
44.34    823
44.36    832
44.38    872
44.4     822
44.42    782
44.44    721
44.46    671
44.48    587
44.5     530
44.52    525
44.54    601
44.56    631
44.58    610
44.6     665
44.62    671
44.64    693
44.66    713
44.68    580
44.7     573
44.72    532
44.74    577
44.76    551
44.78    548
44.8     663
44.82    691
44.84    693
44.86    664
44.88    658
44.9     740
44.92    730
44.94    887
44.96    1050
44.98    1430
45.0     1944
45.02    2420
45.04    2854
45.06    3028
45.08    3016
45.1     2743
45.12    2303
45.14    1828
45.16    1292
45.18    1034
45.2     871
45.22    880
45.24    885
45.26    805
45.28    724
45.3     678
45.32    672
45.34    569
45.36    533
45.38    618
45.4     614
45.42    739
45.44    695
45.46    682
45.48    650
45.5     580
45.52    545
45.54    483
45.56    519
45.58    568
45.6     579
45.62    739
45.64    739
45.66    729
45.68    665
45.7     561
45.72    662
45.74    633
45.76    657
45.78    669
45.8     739
45.82    849
45.84    763
45.86    732
45.88    650
45.9     590
45.92    626
45.94    563
45.96    612
45.98    604
46.0     670
46.02    715
46.04    697
46.06    695
46.08    591
46.1     569
46.12    523
46.14    479
46.16    496
46.18    528
46.2     625
46.22    654
46.24    708
46.26    699
46.28    689
46.3     631
46.32    556
46.34    521
46.36    547
46.38    547
46.4     498
46.42    541
46.44    589
46.46    592
46.48    587
46.5     569
46.52    647
46.54    710
46.56    744
46.58    724
46.6     662
46.62    711
46.64    562
46.66    477
46.68    399
46.7     392
46.72    386
46.74    352
46.76    415
46.78    513
46.8     569
46.82    599
46.84    594
46.86    626
46.88    676
46.9     645
46.92    601
46.94    505
46.96    570
46.98    563
47.0     545
47.02    530
47.04    585
47.06    628
47.08    637
47.1     537
47.12    544
47.14    469
47.16    500
47.18    423
47.2     439
47.22    510
47.24    605
47.26    649
47.28    632
47.3     625
47.32    667
47.34    648
47.36    664
47.38    621
47.4     586
47.42    588
47.44    552
47.46    471
47.48    426
47.5     431
47.52    449
47.54    473
47.56    503
47.58    529
47.6     560
47.62    625
47.64    638
47.66    688
47.68    754
47.7     849
47.72    850
47.74    780
47.76    686
47.78    641
47.8     569
47.82    454
47.84    397
47.86    443
47.88    491
47.9     583
47.92    662
47.94    719
47.96    793
47.98    828
48.0     778
48.02    703
48.04    618
48.06    565
48.08    490
48.1     419
48.12    459
48.14    500
48.16    566
48.18    633
48.2     726
48.22    813
48.24    785
48.26    761
48.28    728
48.3     607
48.32    600
48.34    519
48.36    491
48.38    501
48.4     536
48.42    617
48.44    622
48.46    634
48.48    654
48.5     598
48.52    616
48.54    535
48.56    513
48.58    462
48.6     481
48.62    554
48.64    592
48.66    717
48.68    796
48.7     823
48.72    850
48.74    714
48.76    629
48.78    505
48.8     389
48.82    286
48.84    253
48.86    324
48.88    451
48.9     554
48.92    681
48.94    758
48.96    816
48.98    828
49.0     743
49.02    622
49.04    494
49.06    407
49.08    431
49.1     391
49.12    433
49.14    507
49.16    548
49.18    599
49.2     660
49.22    687
49.24    629
49.26    631
49.28    586
49.3     543
49.32    555
49.34    524
49.36    501
49.38    514
49.4     572
49.42    549
49.44    463
49.46    468
49.48    413
49.5     437
49.52    456
49.54    504
49.56    533
49.58    541
49.6     558
49.62    564
49.64    542
49.66    524
49.68    468
49.7     489
49.72    512
49.74    550
49.76    520
49.78    563
49.8     590
49.82    611
49.84    555
49.86    478
49.88    441
49.9     406
49.92    350
49.94    346
49.96    376
49.98    520
50.0     493
50.02    554
50.04    593
50.06    608
50.08    645
50.1     608
50.12    596
50.14    599
50.16    560
50.18    538
50.2     449
50.22    431
50.24    442
50.26    464
50.28    515
50.3     541
50.32    581
50.34    564
50.36    547
50.38    508
50.4     436
50.42    404
50.44    404
50.46    433
50.48    452
50.5     486
50.52    535
50.54    615
50.56    674
50.58    723
50.6     722
50.62    757
50.64    716
50.66    623
50.68    509
50.7     446
50.72    402
50.74    416
50.76    422
50.78    490
50.8     524
50.82    597
50.84    573
50.86    556
50.88    584
50.9     575
50.92    556
50.94    562
50.96    599
50.98    639
51.0     654
51.02    624
51.04    589
51.06    602
51.08    613
51.1     570
51.12    530
51.14    561
51.16    548
51.18    528
51.2     512
51.22    469
51.24    486
51.26    455
51.28    529
51.3     615
51.32    640
51.34    731
51.36    712
51.38    722
51.4     743
51.42    754
51.44    665
51.46    578
51.48    531
51.5     503
51.52    433
51.54    425
51.56    438
51.58    542
51.6     675
51.62    809
51.64    800
51.66    774
51.68    695
51.7     656
51.72    533
51.74    427
51.76    356
51.78    375
51.8     446
51.82    528
51.84    577
51.86    662
51.88    726
51.9     804
51.92    802
51.94    742
51.96    665
51.98    643
52.0     587
52.02    558
52.04    525
52.06    534
52.08    581
52.1     621
52.12    689
52.14    709
52.16    711
52.18    795
52.2     880
52.22    880
52.24    846
52.26    768
52.28    776
52.3     726
52.32    686
52.34    576
52.36    528
52.38    532
52.4     578
52.42    490
52.44    456
52.46    415
52.48    486
52.5     570
52.52    580
52.54    652
52.56    756
52.58    819
52.6     847
52.62    811
52.64    722
52.66    654
52.68    610
52.7     559
52.72    454
52.74    448
52.76    423
52.78    492
52.8     501
52.82    553
52.84    593
52.86    649
52.88    705
52.9     765
52.92    780
52.94    754
52.96    726
52.98    754
53.0     725
53.02    746
53.04    720
53.06    685
53.08    651
53.1     691
53.12    688
53.14    661
53.16    594
53.18    627
53.2     686
53.22    788
53.24    854
53.26    932
53.28    1037
53.3     1120
53.32    1248
53.34    1515
53.36    2038
53.38    3456
53.4     5898
53.42    8825
53.44    11452
53.46    13117
53.48    13417
53.5     12341
53.52    10209
53.54    7361
53.56    4505
53.58    2504
53.6     1540
53.62    1220
53.64    1191
53.66    1107
53.68    964
53.7     886
53.72    753
53.74    682
53.76    720
53.78    758
53.8     709
53.82    725
53.84    737
53.86    741
53.88    760
53.9     788
53.92    707
53.94    694
53.96    676
53.98    644
54.0     538
54.02    482
54.04    500
54.06    589
54.08    596
54.1     637
54.12    575
54.14    629
54.16    650
54.18    582
54.2     504
54.22    504
54.24    587
54.26    648
54.28    629
54.3     617
54.32    630
54.34    665
54.36    650
54.38    516
54.4     477
54.42    471
54.44    522
54.46    565
54.48    536
54.5     590
54.52    669
54.54    682
54.56    676
54.58    561
54.6     499
54.62    406
54.64    311
54.66    223
54.68    207
54.7     334
54.72    452
54.74    597
54.76    727
54.78    787
54.8     811
54.82    781
54.84    673
54.86    591
54.88    478
54.9     434
54.92    380
54.94    370
54.96    364
54.98    395
55.0     448
55.02    625
55.04    753
55.06    843
55.08    826
55.1     874
55.12    804
55.14    769
55.16    674
55.18    573
55.2     458
55.22    430
55.24    394
55.26    368
55.28    420
55.3     453
55.32    510
55.34    633
55.36    691
55.38    720
55.4     739
55.42    678
55.44    646
55.46    630
55.48    631
55.5     578
55.52    561
55.54    494
55.56    471
55.58    532
55.6     567
55.62    579
55.64    622
55.66    711
55.68    744
55.7     813
55.72    775
55.74    674
55.76    627
55.78    603
55.8     544
55.82    534
55.84    451
55.86    436
55.88    446
55.9     467
55.92    464
55.94    511
55.96    561
55.98    611
56.0     667
56.02    698
56.04    723
56.06    700
56.08    684
56.1     663
56.12    650
56.14    635
56.16    630
56.18    589
56.2     515
56.22    492
56.24    536
56.26    497
56.28    511
56.3     600
56.32    671
56.34    749
56.36    764
56.38    705
56.4     635
56.42    605
56.44    499
56.46    392
56.48    348
56.5     346
56.52    386
56.54    463
56.56    462
56.58    544
56.6     585
56.62    616
56.64    584
56.66    592
56.68    636
56.7     684
56.72    801
56.74    837
56.76    780
56.78    755
56.8     680
56.82    602
56.84    577
56.86    521
56.88    478
56.9     540
56.92    655
56.94    664
56.96    652
56.98    698
57.0     653
57.02    639
57.04    666
57.06    568
57.08    538
57.1     588
57.12    601
57.14    601
57.16    703
57.18    754
57.2     721
57.22    763
57.24    728
57.26    654
57.28    676
57.3     655
57.32    544
57.34    586
57.36    667
57.38    662
57.4     675
57.42    693
57.44    630
57.46    637
57.48    696
57.5     729
57.52    721
57.54    770
57.56    765
57.58    761
57.6     796
57.62    761
57.64    696
57.66    659
57.68    607
57.7     670
57.72    686
57.74    699
57.76    734
57.78    760
57.8     840
57.82    840
57.84    847
57.86    761
57.88    782
57.9     856
57.92    916
57.94    1067
57.96    1144
57.98    1256
58.0     1383
58.02    1508
58.04    1564
58.06    1552
58.08    1701
58.1     1845
58.12    2247
58.14    3083
58.16    4646
58.18    7622
58.2     12217
58.22    17965
58.24    23569
58.26    27607
58.28    29042
58.3     27727
58.32    23937
58.34    18441
58.36    12450
58.38    7373
58.4     4065
58.42    2464
58.44    1913
58.46    1685
58.48    1441
58.5     1357
58.52    1297
58.54    1257
58.56    1196
58.58    1147
58.6     1094
58.62    1039
58.64    958
58.66    882
58.68    778
58.7     711
58.72    656
58.74    648
58.76    685
58.78    731
58.8     796
58.82    820
58.84    879
58.86    890
58.88    860
58.9     856
58.92    761
58.94    706
58.96    648
58.98    598
59.0     531
59.02    506
59.04    564
59.06    535
59.08    517
59.1     599
59.12    611
59.14    662
59.16    624
59.18    667
59.2     656
59.22    711
59.24    775
59.26    712
59.28    644
59.3     674
59.32    639
59.34    609
59.36    523
59.38    570
59.4     503
59.42    502
59.44    531
59.46    463
59.48    424
59.5     401
59.52    400
59.54    363
59.56    378
59.58    390
59.6     418
59.62    540
59.64    628
59.66    684
59.68    705
59.7     707
59.72    689
59.74    676
59.76    657
59.78    558
59.8     540
59.82    512
59.84    507
59.86    528
59.88    493
59.9     488
59.92    501
59.94    548
59.96    581
59.98    569
60.0     590
60.02    619
60.04    630
60.06    599
60.08    556
60.1     545
60.12    550
60.14    512
60.16    546
60.18    590
60.2     659
60.22    683
60.24    618
60.26    547
60.28    556
60.3     515
60.32    471
60.34    432
60.36    403
60.38    412
60.4     490
60.42    512
60.44    561
60.46    581
60.48    668
60.5     690
60.52    682
60.54    683
60.56    624
60.58    556
60.6     529
60.62    540
60.64    560
60.66    544
60.68    576
60.7     561
60.72    578
60.74    606
60.76    672
60.78    627
60.8     577
60.82    585
60.84    551
60.86    532
60.88    469
60.9     503
60.92    557
60.94    588
60.96    655
60.98    623
61.0     640
61.02    671
61.04    692
61.06    693
61.08    606
61.1     644
61.12    625
61.14    619
61.16    626
61.18    555
61.2     547
61.22    498
61.24    511
61.26    557
61.28    484
61.3     511
61.32    547
61.34    612
61.36    660
61.38    639
61.4     637
61.42    596
61.44    624
61.46    694
61.48    658
61.5     625
61.52    612
61.54    574
61.56    510
61.58    518
61.6     466
61.62    483
61.64    445
61.66    490
61.68    518
61.7     559
61.72    608
61.74    641
61.76    642
61.78    646
61.8     679
61.82    732
61.84    714
61.86    761
61.88    812
61.9     825
61.92    861
61.94    979
61.96    1069
61.98    1101
62.0     1173
62.02    1346
62.04    1656
62.06    2303
62.08    3439
62.1     5171
62.12    7546
62.14    10307
62.16    12954
62.18    15086
62.2     16542
62.22    17295
62.24    17172
62.26    16414
62.28    15199
62.3     13736
62.32    12265
62.34    10817
62.36    9265
62.38    7809
62.4     6507
62.42    5410
62.44    4494
62.46    3755
62.48    3107
62.5     2559
62.52    2085
62.54    1786
62.56    1529
62.58    1371
62.6     1222
62.62    1192
62.64    1205
62.66    1256
62.68    1317
62.7     1357
62.72    1233
62.74    1239
62.76    1168
62.78    1100
62.8     982
62.82    945
62.84    968
62.86    958
62.88    950
62.9     927
62.92    852
62.94    878
62.96    831
62.98    779
63.0     677
63.02    631
63.04    665
63.06    619
63.08    577
63.1     533
63.12    519
63.14    564
63.16    574
63.18    584
63.2     604
63.22    633
63.24    678
63.26    738
63.28    744
63.3     677
63.32    660
63.34    662
63.36    688
63.38    673
63.4     671
63.42    620
63.44    551
63.46    530
63.48    513
63.5     443
63.52    459
63.54    407
63.56    448
63.58    425
63.6     493
63.62    527
63.64    550
63.66    560
63.68    606
63.7     572
63.72    578
63.74    520
63.76    563
63.78    553
63.8     615
63.82    730
63.84    747
63.86    719
63.88    706
63.9     680
63.92    607
63.94    542
63.96    500
63.98    423
64.0     359
64.02    419
64.04    452
64.06    501
64.08    562
64.1     654
64.12    633
64.14    630
64.16    591
64.18    619
64.2     569
64.22    544
64.24    512
64.26    523
64.28    498
64.3     515
64.32    472
64.34    523
64.36    511
64.38    641
64.4     691
64.42    728
64.44    762
64.46    796
64.48    750
64.5     736
64.52    734
64.54    785
64.56    750
64.58    812
64.6     873
64.62    873
64.64    836
64.66    762
64.68    702
64.7     717
64.72    822
64.74    1094
64.76    1425
64.78    1959
64.8     2695
64.82    3468
64.84    4175
64.86    4753
64.88    5127
64.9     5275
64.92    5190
64.94    4973
64.96    4606
64.98    4193
65.0     3834
65.02    3424
65.04    2977
65.06    2565
65.08    2192
65.1     1876
65.12    1579
65.14    1332
65.16    1125
65.18    937
65.2     810
65.22    743
65.24    744
65.26    720
65.28    666
65.3     639
65.32    608
65.34    586
65.36    551
65.38    530
65.4     516
65.42    542
65.44    604
65.46    558
65.48    544
65.5     588
65.52    640
65.54    676
65.56    639
65.58    594
65.6     554
65.62    471
65.64    446
65.66    366
65.68    395
65.7     464
65.72    522
65.74    562
65.76    601
65.78    664
65.8     694
65.82    703
65.84    673
65.86    568
65.88    482
65.9     464
65.92    349
65.94    336
65.96    344
65.98    379
66.0     419
66.02    468
66.04    456
66.06    465
66.08    436
66.1     461
66.12    409
66.14    487
66.16    514
66.18    550
66.2     581
66.22    634
66.24    623
66.26    664
66.28    579
66.3     546
66.32    491
66.34    479
66.36    422
66.38    362
66.4     322
66.42    360
66.44    339
66.46    361
66.48    403
66.5     460
66.52    538
66.54    610
66.56    666
66.58    680
66.6     653
66.62    633
66.64    562
66.66    468
66.68    459
66.7     440
66.72    456
66.74    459
66.76    529
66.78    531
66.8     487
66.82    490
66.84    460
66.86    424
66.88    421
66.9     431
66.92    478
66.94    509
66.96    537
66.98    519
67.0     454
67.02    512
67.04    521
67.06    531
67.08    479
67.1     426
67.12    473
67.14    461
67.16    475
67.18    514
67.2     484
67.22    472
67.24    480
67.26    468
67.28    449
67.3     421
67.32    483
67.34    496
67.36    521
67.38    511
67.4     515
67.42    485
67.44    484
67.46    524
67.48    547
67.5     568
67.52    616
67.54    582
67.56    573
67.58    523
67.6     532
67.62    530
67.64    471
67.66    512
67.68    545
67.7     576
67.72    617
67.74    556
67.76    542
67.78    491
67.8     521
67.82    535
67.84    517
67.86    498
67.88    529
67.9     579
67.92    611
67.94    607
67.96    608
67.98    606
68.0     610
68.02    599
68.04    583
68.06    514
68.08    494
68.1     502
68.12    483
68.14    527
68.16    534
68.18    482
68.2     456
68.22    496
68.24    509
68.26    541
68.28    549
68.3     540
68.32    486
68.34    491
68.36    423
68.38    388
68.4     432
68.42    456
68.44    515
68.46    532
68.48    562
68.5     624
68.52    698
68.54    761
68.56    735
68.58    821
68.6     873
68.62    845
68.64    820
68.66    765
68.68    712
68.7     696
68.72    702
68.74    697
68.76    778
68.78    955
68.8     1209
68.82    1663
68.84    2300
68.86    3077
68.88    3994
68.9     4949
68.92    5786
68.94    6437
68.96    6689
68.98    6535
69.0     5900
69.02    5011
69.04    3965
69.06    2928
69.08    2063
69.1     1402
69.12    1023
69.14    877
69.16    806
69.18    823
69.2     749
69.22    704
69.24    697
69.26    669
69.28    645
69.3     643
69.32    633
69.34    643
69.36    619
69.38    608
69.4     605
69.42    630
69.44    608
69.46    575
69.48    581
69.5     566
69.52    516
69.54    582
69.56    533
69.58    539
69.6     547
69.62    551
69.64    506
69.66    497
69.68    505
69.7     524
69.72    550
69.74    587
69.76    545
69.78    548
69.8     538
69.82    511
69.84    517
69.86    521
69.88    512
69.9     524
69.92    494
69.94    489
69.96    493
69.98    435
70.0     467
70.02    490
70.04    527
70.06    571
70.08    658
70.1     695
70.12    662
70.14    684
70.16    645
70.18    603
70.2     661
70.22    701
70.24    789
70.26    895
70.28    948
70.3     1006
70.32    1140
70.34    1286
70.36    1437
70.38    1630
70.4     1795
70.42    1914
70.44    2049
70.46    2133
70.48    2161
70.5     2253
70.52    2280
70.54    2313
70.56    2373
70.58    2409
70.6     2313
70.62    2152
70.64    1931
70.66    1659
70.68    1369
70.7     1128
70.72    923
70.74    801
70.76    743
70.78    673
70.8     616
70.82    606
70.84    560
70.86    520
70.88    548
70.9     570
70.92    634
70.94    594
70.96    593
70.98    604
71.0     608
71.02    578
71.04    580
71.06    546
71.08    526
71.1     512
71.12    520
71.14    494
71.16    485
71.18    499
71.2     509
71.22    518
71.24    542
71.26    496
71.28    470
71.3     479
71.32    487
71.34    508
71.36    486
71.38    470
71.4     479
71.42    442
71.44    439
71.46    435
71.48    453
71.5     478
71.52    569
71.54    599
71.56    558
71.58    571
71.6     560
71.62    526
71.64    574
71.66    562
71.68    572
71.7     594
71.72    563
71.74    520
71.76    488
71.78    568
71.8     536
71.82    565
71.84    515
71.86    505
71.88    507
71.9     493
71.92    465
71.94    502
71.96    571
71.98    589
72.0     582
72.02    613
72.04    591
72.06    639
72.08    669
72.1     682
72.12    689
72.14    677
72.16    637
72.18    615
72.2     616
72.22    655
72.24    654
72.26    637
72.28    683
72.3     682
72.32    673
72.34    679
72.36    638
72.38    719
72.4     815
72.42    988
72.44    1209
72.46    1665
72.48    2372
72.5     3314
72.52    4440
72.54    5640
72.56    6595
72.58    7314
72.6     7545
72.62    7250
72.64    6549
72.66    5595
72.68    4622
72.7     3722
72.72    2988
72.74    2414
72.76    1900
72.78    1620
72.8     1382
72.82    1175
72.84    965
72.86    847
72.88    846
72.9     803
72.92    755
72.94    670
72.96    621
72.98    612
73.0     567
73.02    531
73.04    486
73.06    487
73.08    533
73.1     557
73.12    572
73.14    620
73.16    655
73.18    664
73.2     639
73.22    597
73.24    607
73.26    581
73.28    561
73.3     560
73.32    501
73.34    464
73.36    454
73.38    526
73.4     645
73.42    782
73.44    966
73.46    1107
73.48    1216
73.5     1333
73.52    1331
73.54    1323
73.56    1331
73.58    1316
73.6     1298
73.62    1178
73.64    1076
73.66    1034
73.68    957
73.7     918
73.72    836
73.74    772
73.76    754
73.78    655
73.8     591
73.82    558
73.84    643
73.86    714
73.88    749
73.9     727
73.92    665
73.94    619
73.96    601
73.98    524
74.0     585
74.02    613
74.04    669
74.06    661
74.08    616
74.1     556
74.12    578
74.14    605
74.16    592
74.18    639
74.2     849
74.22    941
74.24    1181
74.26    1409
74.28    1683
74.3     1991
74.32    2232
74.34    2357
74.36    2395
74.38    2412
74.4     2400
74.42    2300
74.44    2269
74.46    2173
74.48    2079
74.5     1919
74.52    1761
74.54    1635
74.56    1558
74.58    1466
74.6     1376
74.62    1347
74.64    1412
74.66    1490
74.68    1641
74.7     1869
74.72    2157
74.74    2487
74.76    2837
74.78    3078
74.8     3249
74.82    3352
74.84    3338
74.86    3171
74.88    2874
74.9     2472
74.92    2058
74.94    1704
74.96    1367
74.98    1078
75.0     944
75.02    867
75.04    842
75.06    856
75.08    749
75.1     683
75.12    674
75.14    655
75.16    600
75.18    571
75.2     581
75.22    574
75.24    616
75.26    630
75.28    601
75.3     624
75.32    607
75.34    616
75.36    654
75.38    665
75.4     712
75.42    703
75.44    709
75.46    695
75.48    715
75.5     655
75.52    538
75.54    480
75.56    422
75.58    352
75.6     364
75.62    316
75.64    297
75.66    337
75.68    400
75.7     364
75.72    401
75.74    474
75.76    573
75.78    648
75.8     726
75.82    732
75.84    712
75.86    694
75.88    655
75.9     538
75.92    517
75.94    472
75.96    458
75.98    415
76.0     363
76.02    388
76.04    423
76.06    407
76.08    486
76.1     489
76.12    550
76.14    584
76.16    549
76.18    505
76.2     482
76.22    572
76.24    521
76.26    471
76.28    505
76.3     450
76.32    443
76.34    386
76.36    330
76.38    361
76.4     409
76.42    450
76.44    392
76.46    432
76.48    469
76.5     458
76.52    456
76.54    464
76.56    490
76.58    565
76.6     599
76.62    597
76.64    598
76.66    605
76.68    599
76.7     577
76.72    546
76.74    550
76.76    529
76.78    524
76.8     494
76.82    407
76.84    427
76.86    394
76.88    415
76.9     450
76.92    438
76.94    476
76.96    503
76.98    466
77.0     417
77.02    342
77.04    423
77.06    414
77.08    496
77.1     467
77.12    418
77.14    498
77.16    543
77.18    516
77.2     516
77.22    547
77.24    659
77.26    676
77.28    696
77.3     642
77.32    621
77.34    735
77.36    740
77.38    721
77.4     725
77.42    802
77.44    875
77.46    1008
77.48    1276
77.5     1697
77.52    2219
77.54    3011
77.56    3829
77.58    4674
77.6     5336
77.62    5988
77.64    6344
77.66    6505
77.68    6405
77.7     6127
77.72    5632
77.74    5217
77.76    4730
77.78    4195
77.8     3628
77.82    3233
77.84    2755
77.86    2339
77.88    1976
77.9     1703
77.92    1418
77.94    1325
77.96    1201
77.98    1068
78.0     993
78.02    936
78.04    804
78.06    726
78.08    684
78.1     642
78.12    555
78.14    601
78.16    600
78.18    536
78.2     533
78.22    517
78.24    499
78.26    490
78.28    469
78.3     455
78.32    417
78.34    495
78.36    466
78.38    402
78.4     410
78.42    448
78.44    442
78.46    423
78.48    421
78.5     488
78.52    526
78.54    590
78.56    577
78.58    611
78.6     652
78.62    655
78.64    582
78.66    575
78.68    556
78.7     575
78.72    536
78.74    507
78.76    464
78.78    415
78.8     397
78.82    353
78.84    358
78.86    410
78.88    405
78.9     437
78.92    470
78.94    463
78.96    457
78.98    421
79.0     375
79.02    382
79.04    359
79.06    379
79.08    416
79.1     466
79.12    567
79.14    551
79.16    583
79.18    611
79.2     558
79.22    613
79.24    594
79.26    619
79.28    632
79.3     578
79.32    543
79.34    429
79.36    371
79.38    429
79.4     407
79.42    452
79.44    518
79.46    546
79.48    525
79.5     473
79.52    458
79.54    449
79.56    465
79.58    517
79.6     527
79.62    443
79.64    464
79.66    452
79.68    343
79.7     301
79.72    324
79.74    340
79.76    369
79.78    371
79.8     375
79.82    330
79.84    363
79.86    406
79.88    376
79.9     446
79.92    524
79.94    566
79.96    646
79.98    678
80.0     713
80.02    761
80.04    793
80.06    825
80.08    885
80.1     872
80.12    799
80.14    720
80.16    622
80.18    537
80.2     473
80.22    410
80.24    449
80.26    448
80.28    496
80.3     438
80.32    394
80.34    442
80.36    413
80.38    412
80.4     434
80.42    462
80.44    536
80.46    511
80.48    497
80.5     441
80.52    345
80.54    319
80.56    290
80.58    239
80.6     302
80.62    332
80.64    403
80.66    486
80.68    572
80.7     573
80.72    555
80.74    570
80.76    640
80.78    620
80.8     616
80.82    558
80.84    516
80.86    468
80.88    409
80.9     337
80.92    270
80.94    271
80.96    268
80.98    295
81.0     294
81.02    319
81.04    325
81.06    347
81.08    410
81.1     398
81.12    392
81.14    446
81.16    406
81.18    462
81.2     442
81.22    474
81.24    475
81.26    495
81.28    533
81.3     475
81.32    478
81.34    477
81.36    448
81.38    448
81.4     411
81.42    396
81.44    366
81.46    348
81.48    371
81.5     339
81.52    406
81.54    496
81.56    538
81.58    589
81.6     586
81.62    553
81.64    543
81.66    448
81.68    456
81.7     404
81.72    408
81.74    454
81.76    486
81.78    464
81.8     448
81.82    417
81.84    453
81.86    442
81.88    523
81.9     521
81.92    496
81.94    500
81.96    495
81.98    416
82.0     337
82.02    322
82.04    314
82.06    344
82.08    331
82.1     345
82.12    302
82.14    294
82.16    335
82.18    395
82.2     412
82.22    485
82.24    466
82.26    476
82.28    428
82.3     446
82.32    378
82.34    389
82.36    429
82.38    454
82.4     432
82.42    390
82.44    334
82.46    326
82.48    341
82.5     418
82.52    411
82.54    435
82.56    455
82.58    404
82.6     348
82.62    291
82.64    247
82.66    300
82.68    338
82.7     401
82.72    426
82.74    399
82.76    394
82.78    365
82.8     332
82.82    345
82.84    347
82.86    382
82.88    388
82.9     435
82.92    443
82.94    401
82.96    415
82.98    415
83.0     420
83.02    456
83.04    453
83.06    427
83.08    407
83.1     415
83.12    401
83.14    391
83.16    348
83.18    327
83.2     336
83.22    325
83.24    266
83.26    233
83.28    199
83.3     227
83.32    269
83.34    283
83.36    275
83.38    331
83.4     357
83.42    412
83.44    392
83.46    425
83.48    369
83.5     371
83.52    338
83.54    331
83.56    283
83.58    284
83.6     284
83.62    371
83.64    344
83.66    346
83.68    309
83.7     304
83.72    324
83.74    434
83.76    435
83.78    501
83.8     552
83.82    578
83.84    563
83.86    526
83.88    489
83.9     497
83.92    496
83.94    465
83.96    355
83.98    286
84.0     177
84.02    133
84.04    117
84.06    135
84.08    209
84.1     329
84.12    391
84.14    368
84.16    338
84.18    318
84.2     332
84.22    451
84.24    520
84.26    604
84.28    603
84.3     618
84.32    621
84.34    534
84.36    464
84.38    418
84.4     491
84.42    527
84.44    518
84.46    501
84.48    339
84.5     275
84.52    265
84.54    271
84.56    320
84.58    283
84.6     351
84.62    340
84.64    377
84.66    362
84.68    349
84.7     457
84.72    504
84.74    657
84.76    766
84.78    745
84.8     803
84.82    709
84.84    719
84.86    673
84.88    660
84.9     626
84.92    516
84.94    570
84.96    582
84.98    595
85.0     556
85.02    459
85.04    485
85.06    415
85.08    382
85.1     355
85.12    312
85.14    362
85.16    374
85.18    370
85.2     347
85.22    331
85.24    324
85.26    296
85.28    367
85.3     354
85.32    390
85.34    398
85.36    407
85.38    406
85.4     413
85.42    403
85.44    379
85.46    403
85.48    460
85.5     403
85.52    393
85.54    351
85.56    344
85.58    293
85.6     249
85.62    227
85.64    242
85.66    327
85.68    376
85.7     393
85.72    387
85.74    378
85.76    322
85.78    274
85.8     269
85.82    327
85.84    378
85.86    406
85.88    468
85.9     448
85.92    405
85.94    366
85.96    286
85.98    297
86.0     367
86.02    473
86.04    525
86.06    573
86.08    638
86.1     513
86.12    499
86.14    471
86.16    433
86.18    434
86.2     478
86.22    569
86.24    632
86.26    577
86.28    555
86.3     467
86.32    406
86.34    368
86.36    395
86.38    504
86.4     707
86.42    991
86.44    1222
86.46    1376
86.48    1546
86.5     1604
86.52    1581
86.54    1524
86.56    1475
86.58    1411
86.6     1343
86.62    1282
86.64    1095
86.66    988
86.68    849
86.7     711
86.72    580
86.74    491
86.76    439
86.78    422
86.8     420
86.82    441
86.84    419
86.86    481
86.88    488
86.9     481
86.92    447
86.94    417
86.96    425
86.98    449
87.0     454
87.02    465
87.04    489
87.06    535
87.08    601
87.1     598
87.12    566
87.14    521
87.16    533
87.18    490
87.2     419
87.22    339
87.24    292
87.26    285
87.28    353
87.3     310
87.32    331
87.34    308
87.36    282
87.38    302
87.4     307
87.42    295
87.44    299
87.46    342
87.48    439
87.5     463
87.52    497
87.54    499
87.56    500
87.58    556
87.6     551
87.62    504
87.64    452
87.66    427
87.68    424
87.7     380
87.72    337
87.74    348
87.76    319
87.78    298
87.8     249
87.82    249
87.84    213
87.86    235
87.88    295
87.9     326
87.92    412
87.94    457
87.96    491
87.98    510
88.0     529
88.02    501
88.04    490
88.06    491
88.08    493
88.1     435
88.12    449
88.14    394
88.16    369
88.18    343
88.2     329
88.22    307
88.24    366
88.26    371
88.28    433
88.3     472
88.32    452
88.34    414
88.36    320
88.38    276
88.4     281
88.42    307
88.44    344
88.46    373
88.48    422
88.5     456
88.52    398
88.54    406
88.56    336
88.58    346
88.6     375
88.62    394
88.64    478
88.66    468
88.68    451
88.7     464
88.72    467
88.74    437
88.76    396
88.78    390
88.8     400
88.82    403
88.84    427
88.86    416
88.88    476
88.9     463
88.92    437
88.94    302
88.96    279
88.98    294
89.0     242
89.02    231
89.04    245
89.06    322
89.08    391
89.1     387
89.12    363
89.14    274
89.16    253
89.18    273
89.2     226
89.22    311
89.24    365
89.26    398
89.28    506
89.3     506
89.32    474
89.34    383
89.36    342
89.38    400
89.4     419
89.42    447
89.44    446
89.46    437
89.48    495
89.5     429
89.52    382
89.54    358
89.56    356
89.58    334
89.6     266
89.62    251
89.64    210
89.66    191
89.68    233
89.7     317
89.72    404
89.74    555
89.76    562
89.78    543
89.8     532
89.82    555
89.84    458
89.86    424
89.88    427
89.9     366
89.92    400
89.94    314
89.96    305
89.98    268
90.0     225
