?
5.0      748
5.02     748
5.04     973
5.06     930
5.08     917
5.1      913
5.12     899
5.14     926
5.16     919
5.18     932
5.2      899
5.22     909
5.24     907
5.26     901
5.28     881
5.3      878
5.32     904
5.34     909
5.36     902
5.38     945
5.4      953
5.42     943
5.44     965
5.46     930
5.48     912
5.5      909
5.52     889
5.54     910
5.56     902
5.58     958
5.6      963
5.62     959
5.64     993
5.66     983
5.68     1011
5.7      996
5.72     966
5.74     984
5.76     915
5.78     921
5.8      908
5.82     903
5.84     912
5.86     911
5.88     922
5.9      923
5.92     938
5.94     935
5.96     941
5.98     955
6.0      941
6.02     951
6.04     969
6.06     971
6.08     1006
6.1      1033
6.12     1017
6.14     1015
6.16     1024
6.18     943
6.2      932
6.22     930
6.24     949
6.26     949
6.28     980
6.3      980
6.32     973
6.34     982
6.36     990
6.38     935
6.4      952
6.42     932
6.44     967
6.46     957
6.48     971
6.5      965
6.52     955
6.54     976
6.56     968
6.58     933
6.6      875
6.62     894
6.64     913
6.66     919
6.68     928
6.7      964
6.72     991
6.74     1073
6.76     1048
6.78     1039
6.8      986
6.82     964
6.84     966
6.86     952
6.88     939
6.9      973
6.92     957
6.94     998
6.96     927
6.98     944
7.0      918
7.02     900
7.04     910
7.06     908
7.08     926
7.1      948
7.12     911
7.14     941
7.16     893
7.18     915
7.2      923
7.22     929
7.24     910
7.26     924
7.28     930
7.3      916
7.32     878
7.34     915
7.36     914
7.38     902
7.4      937
7.42     977
7.44     1007
7.46     988
7.48     973
7.5      938
7.52     916
7.54     916
7.56     951
7.58     897
7.6      945
7.62     961
7.64     981
7.66     951
7.68     915
7.7      928
7.72     937
7.74     904
7.76     923
7.78     870
7.8      863
7.82     870
7.84     879
7.86     839
7.88     839
7.9      887
7.92     923
7.94     919
7.96     960
7.98     934
8.0      920
8.02     975
8.04     947
8.06     925
8.08     908
8.1      872
8.12     893
8.14     883
8.16     885
8.18     835
8.2      838
8.22     893
8.24     889
8.26     895
8.28     868
8.3      888
8.32     922
8.34     934
8.36     919
8.38     892
8.4      933
8.42     939
8.44     947
8.46     926
8.48     925
8.5      983
8.52     997
8.54     959
8.56     911
8.58     876
8.6      870
8.62     845
8.64     852
8.66     812
8.68     802
8.7      846
8.72     845
8.74     807
8.76     809
8.78     812
8.8      819
8.82     870
8.84     870
8.86     877
8.88     824
8.9      895
8.92     832
8.94     812
8.96     780
8.98     736
9.0      774
9.02     759
9.04     801
9.06     839
9.08     850
9.1      901
9.12     883
9.14     830
9.16     806
9.18     741
9.2      749
9.22     704
9.24     735
9.26     745
9.28     771
9.3      756
9.32     790
9.34     751
9.36     731
9.38     725
9.4      716
9.42     709
9.44     731
9.46     716
9.48     711
9.5      688
9.52     729
9.54     706
9.56     673
9.58     687
9.6      680
9.62     667
9.64     679
9.66     666
9.68     702
9.7      709
9.72     731
9.74     730
9.76     726
9.78     752
9.8      762
9.82     743
9.84     786
9.86     786
9.88     788
9.9      786
9.92     775
9.94     715
9.96     685
9.98     707
10.0     716
10.02    757
10.04    774
10.06    748
10.08    759
10.1     736
10.12    702
10.14    630
10.16    603
10.18    624
10.2     659
10.22    660
10.24    687
10.26    740
10.28    735
10.3     697
10.32    725
10.34    718
10.36    657
10.38    727
10.4     704
10.42    683
10.44    736
10.46    813
10.48    821
10.5     818
10.52    802
10.54    797
10.56    761
10.58    753
10.6     679
10.62    682
10.64    661
10.66    689
10.68    736
10.7     768
10.72    788
10.74    820
10.76    770
10.78    767
10.8     754
10.82    763
10.84    744
10.86    725
10.88    761
10.9     834
10.92    895
10.94    895
10.96    818
10.98    853
11.0     814
11.02    791
11.04    794
11.06    730
11.08    715
11.1     776
11.12    814
11.14    777
11.16    810
11.18    840
11.2     866
11.22    908
11.24    950
11.26    896
11.28    876
11.3     857
11.32    836
11.34    833
11.36    870
11.38    811
11.4     832
11.42    879
11.44    885
11.46    852
11.48    852
11.5     861
11.52    845
11.54    941
11.56    936
11.58    919
11.6     896
11.62    942
11.64    936
11.66    966
11.68    959
11.7     940
11.72    907
11.74    960
11.76    946
11.78    920
11.8     870
11.82    949
11.84    940
11.86    967
11.88    980
11.9     967
11.92    929
11.94    952
11.96    940
11.98    919
12.0     963
12.02    1005
12.04    967
12.06    939
12.08    951
12.1     930
12.12    872
12.14    949
12.16    961
12.18    955
12.2     1023
12.22    1041
12.24    1027
12.26    995
12.28    991
12.3     960
12.32    917
12.34    963
12.36    950
12.38    921
12.4     938
12.42    921
12.44    935
12.46    958
12.48    979
12.5     1021
12.52    1058
12.54    1079
12.56    1073
12.58    1086
12.6     1071
12.62    1041
12.64    1046
12.66    1080
12.68    1084
12.7     1066
12.72    1050
12.74    1032
12.76    1057
12.78    1065
12.8     1083
12.82    1036
12.84    1016
12.86    1057
12.88    1042
12.9     979
12.92    955
12.94    983
12.96    1023
12.98    975
13.0     961
13.02    937
13.04    966
13.06    1003
13.08    968
13.1     928
13.12    949
13.14    971
13.16    980
13.18    944
13.2     970
13.22    1021
13.24    1011
13.26    1000
13.28    942
13.3     941
13.32    1030
13.34    1018
13.36    1024
13.38    1065
13.4     1105
13.42    1105
13.44    1050
13.46    997
13.48    991
13.5     952
13.52    1009
13.54    979
13.56    967
13.58    1015
13.6     1015
13.62    1007
13.64    979
13.66    1003
13.68    1008
13.7     973
13.72    1030
13.74    1034
13.76    1019
13.78    1084
13.8     1119
13.82    1098
13.84    1075
13.86    1088
13.88    1074
13.9     1095
13.92    1087
13.94    1075
13.96    1084
13.98    1109
14.0     1105
14.02    1059
14.04    1043
14.06    993
14.08    1013
14.1     1015
14.12    978
14.14    992
14.16    1024
14.18    1019
14.2     1051
14.22    1085
14.24    1100
14.26    1027
14.28    1006
14.3     1013
14.32    1017
14.34    1063
14.36    1080
14.38    1056
14.4     1088
14.42    1120
14.44    1112
14.46    1046
14.48    1039
14.5     1052
14.52    993
14.54    1007
14.56    1012
14.58    969
14.6     1003
14.62    1032
14.64    1055
14.66    1087
14.68    1120
14.7     1120
14.72    1068
14.74    1128
14.76    1158
14.78    1120
14.8     1149
14.82    1189
14.84    1215
14.86    1225
14.88    1244
14.9     1244
14.92    1246
14.94    1286
14.96    1330
14.98    1287
15.0     1259
15.02    1207
15.04    1156
15.06    1076
15.08    1024
15.1     972
15.12    1027
15.14    1109
15.16    1218
15.18    1248
15.2     1230
15.22    1196
15.24    1184
15.26    1111
15.28    1030
15.3     1015
15.32    1018
15.34    1025
15.36    1030
15.38    1037
15.4     1029
15.42    1049
15.44    1061
15.46    1077
15.48    1092
15.5     1156
15.52    1154
15.54    1140
15.56    1127
15.58    1119
15.6     1121
15.62    1125
15.64    1147
15.66    1216
15.68    1182
15.7     1167
15.72    1150
15.74    1136
15.76    1140
15.78    1137
15.8     1086
15.82    1084
15.84    1164
15.86    1186
15.88    1146
15.9     1160
15.92    1164
15.94    1203
15.96    1296
15.98    1389
16.0     1420
16.02    1489
16.04    1545
16.06    1558
16.08    1652
16.1     1667
16.12    1654
16.14    1741
16.16    1866
16.18    1995
16.2     2164
16.22    2380
16.24    2568
16.26    2839
16.28    3260
16.3     3688
16.32    4208
16.34    4895
16.36    5853
16.38    7076
16.4     8548
16.42    10416
16.44    12858
16.46    16451
16.48    22209
16.5     31214
16.52    42851
16.54    54193
16.56    62221
16.58    64614
16.6     60583
16.62    50980
16.64    37709
16.66    23505
16.68    11500
16.7     4092
16.72    1189
16.74    791
16.76    1356
16.78    1820
16.8     1848
16.82    1724
16.84    1605
16.86    1617
16.88    1627
16.9     1543
16.92    1478
16.94    1439
16.96    1381
16.98    1337
17.0     1248
17.02    1235
17.04    1288
17.06    1373
17.08    1395
17.1     1363
17.12    1416
17.14    1399
17.16    1268
17.18    1204
17.2     1143
17.22    1118
17.24    1107
17.26    1026
17.28    987
17.3     1052
17.32    1140
17.34    1154
17.36    1156
17.38    1130
17.4     1115
17.42    1077
17.44    1047
17.46    986
17.48    994
17.5     1073
17.52    1107
17.54    1101
17.56    1067
17.58    982
17.6     978
17.62    962
17.64    981
17.66    957
17.68    954
17.7     962
17.72    982
17.74    952
17.76    890
17.78    881
17.8     948
17.82    953
17.84    958
17.86    878
17.88    883
17.9     928
17.92    953
17.94    951
17.96    902
17.98    906
18.0     911
18.02    859
18.04    772
18.06    712
18.08    743
18.1     867
18.12    904
18.14    886
18.16    863
18.18    864
18.2     816
18.22    745
18.24    713
18.26    766
18.28    795
18.3     886
18.32    875
18.34    855
18.36    859
18.38    850
18.4     829
18.42    784
18.44    775
18.46    849
18.48    812
18.5     760
18.52    762
18.54    740
18.56    710
18.58    732
18.6     780
18.62    757
18.64    690
18.66    741
18.68    718
18.7     759
18.72    768
18.74    692
18.76    743
18.78    867
18.8     854
18.82    784
18.84    695
18.86    756
18.88    798
18.9     827
18.92    745
18.94    673
18.96    727
18.98    764
19.0     685
19.02    646
19.04    607
19.06    641
19.08    641
19.1     654
19.12    632
19.14    649
19.16    650
19.18    641
19.2     658
19.22    640
19.24    588
19.26    605
19.28    585
19.3     651
19.32    700
19.34    783
19.36    817
19.38    797
19.4     794
19.42    759
19.44    691
19.46    684
19.48    640
19.5     676
19.52    610
19.54    624
19.56    662
19.58    644
19.6     634
19.62    552
19.64    509
19.66    533
19.68    588
19.7     639
19.72    561
19.74    563
19.76    659
19.78    701
19.8     671
19.82    529
19.84    494
19.86    525
19.88    591
19.9     579
19.92    471
19.94    406
19.96    478
19.98    515
20.0     520
20.02    493
20.04    473
20.06    551
20.08    537
20.1     524
20.12    490
20.14    503
20.16    555
20.18    595
20.2     572
20.22    541
20.24    500
20.26    511
20.28    500
20.3     529
20.32    565
20.34    578
20.36    603
20.38    599
20.4     556
20.42    585
20.44    631
20.46    626
20.48    591
20.5     544
20.52    543
20.54    500
20.56    530
20.58    530
20.6     556
20.62    622
20.64    665
20.66    639
20.68    652
20.7     675
20.72    638
20.74    609
20.76    596
20.78    535
20.8     524
20.82    561
20.84    535
20.86    498
20.88    520
20.9     525
20.92    508
20.94    539
20.96    487
20.98    490
21.0     570
21.02    590
21.04    503
21.06    444
21.08    433
21.1     403
21.12    407
21.14    486
21.16    519
21.18    591
21.2     634
21.22    624
21.24    594
21.26    536
21.28    492
21.3     392
21.32    396
21.34    447
21.36    536
21.38    524
21.4     537
21.42    535
21.44    515
21.46    468
21.48    419
21.5     404
21.52    404
21.54    394
21.56    413
21.58    371
21.6     345
21.62    353
21.64    412
21.66    434
21.68    446
21.7     541
21.72    511
21.74    448
21.76    412
21.78    430
21.8     422
21.82    428
21.84    458
21.86    439
21.88    462
21.9     501
21.92    462
21.94    418
21.96    388
21.98    367
22.0     369
22.02    325
22.04    361
22.06    367
22.08    396
22.1     402
22.12    407
22.14    324
22.16    324
22.18    341
22.2     396
22.22    389
22.24    465
22.26    476
22.28    498
22.3     427
22.32    393
22.34    321
22.36    350
22.38    315
22.4     361
22.42    372
22.44    399
22.46    421
22.48    461
22.5     444
22.52    499
22.54    516
22.56    491
22.58    449
22.6     438
22.62    442
22.64    407
22.66    437
22.68    463
22.7     491
22.72    534
22.74    507
22.76    449
22.78    439
22.8     363
22.82    402
22.84    358
22.86    368
22.88    414
22.9     461
22.92    507
22.94    487
22.96    478
22.98    504
23.0     438
23.02    406
23.04    340
23.06    308
23.08    311
23.1     335
23.12    383
23.14    407
23.16    403
23.18    401
23.2     377
23.22    404
23.24    434
23.26    470
23.28    446
23.3     423
23.32    342
23.34    344
23.36    290
23.38    329
23.4     354
23.42    378
23.44    350
23.46    385
23.48    378
23.5     382
23.52    353
23.54    356
23.56    361
23.58    403
23.6     363
23.62    275
23.64    217
23.66    249
23.68    332
23.7     391
23.72    412
23.74    379
23.76    422
23.78    427
23.8     463
23.82    408
23.84    418
23.86    459
23.88    520
23.9     529
23.92    455
23.94    363
23.96    356
23.98    365
24.0     407
24.02    365
24.04    351
24.06    354
24.08    353
24.1     301
24.12    211
24.14    201
24.16    279
24.18    414
24.2     447
24.22    450
24.24    375
24.26    355
24.28    304
24.3     250
24.32    238
24.34    266
24.36    249
24.38    258
24.4     210
24.42    240
24.44    273
24.46    325
24.48    337
24.5     358
24.52    398
24.54    397
24.56    322
24.58    228
24.6     206
24.62    233
24.64    282
24.66    332
24.68    344
24.7     386
24.72    444
24.74    477
24.76    442
24.78    410
24.8     409
24.82    414
24.84    409
24.86    394
24.88    342
24.9     328
24.92    278
24.94    221
24.96    206
24.98    270
25.0     351
25.02    396
25.04    423
25.06    390
25.08    365
25.1     349
25.12    291
25.14    223
25.16    277
25.18    281
25.2     332
25.22    399
25.24    418
25.26    363
25.28    250
25.3     234
25.32    178
25.34    248
25.36    275
25.38    299
25.4     337
25.42    388
25.44    380
25.46    339
25.48    253
25.5     187
25.52    160
25.54    218
25.56    230
25.58    327
25.6     348
25.62    362
25.64    374
25.66    327
25.68    327
25.7     239
25.72    261
25.74    239
25.76    332
25.78    423
25.8     379
25.82    282
25.84    211
25.86    171
25.88    266
25.9     264
25.92    333
25.94    332
25.96    395
25.98    433
26.0     385
26.02    357
26.04    381
26.06    345
26.08    301
26.1     301
26.12    335
26.14    339
26.16    367
26.18    318
26.2     335
26.22    324
26.24    342
26.26    259
26.28    258
26.3     315
26.32    358
26.34    373
26.36    417
26.38    294
26.4     305
26.42    258
26.44    312
26.46    327
26.48    390
26.5     369
26.52    408
26.54    394
26.56    417
26.58    368
26.6     346
26.62    305
26.64    271
26.66    305
26.68    311
26.7     322
26.72    350
26.74    382
26.76    401
26.78    434
26.8     406
26.82    338
26.84    269
26.86    293
26.88    293
26.9     288
26.92    241
26.94    253
26.96    241
26.98    257
27.0     259
27.02    210
27.04    168
27.06    189
27.08    218
27.1     257
27.12    251
27.14    262
27.16    320
27.18    430
27.2     476
27.22    439
27.24    310
27.26    235
27.28    172
27.3     182
27.32    171
27.34    151
27.36    226
27.38    366
27.4     394
27.42    402
27.44    348
27.46    290
27.48    305
27.5     328
27.52    338
27.54    346
27.56    332
27.58    351
27.6     307
27.62    330
27.64    298
27.66    264
27.68    224
27.7     171
27.72    182
27.74    176
27.76    176
27.78    215
27.8     294
27.82    376
27.84    368
27.86    363
27.88    252
27.9     221
27.92    213
27.94    191
27.96    232
27.98    244
28.0     262
28.02    249
28.04    246
28.06    240
28.08    233
28.1     243
28.12    266
28.14    255
28.16    274
28.18    280
28.2     310
28.22    330
28.24    395
28.26    388
28.28    378
28.3     326
28.32    301
28.34    269
28.36    311
28.38    315
28.4     278
28.42    228
28.44    240
28.46    241
28.48    249
28.5     226
28.52    215
28.54    244
28.56    301
28.58    286
28.6     274
28.62    291
28.64    274
28.66    297
28.68    255
28.7     200
28.72    213
28.74    230
28.76    308
28.78    391
28.8     469
28.82    486
28.84    421
28.86    338
28.88    255
28.9     222
28.92    258
28.94    230
28.96    245
28.98    307
29.0     271
29.02    287
29.04    252
29.06    189
29.08    179
29.1     161
29.12    212
29.14    222
29.16    324
29.18    389
29.2     419
29.22    392
29.24    305
29.26    277
29.28    229
29.3     171
29.32    187
29.34    170
29.36    244
29.38    247
29.4     270
29.42    257
29.44    210
29.46    308
29.48    343
29.5     347
29.52    365
29.54    282
29.56    249
29.58    195
29.6     187
29.62    232
29.64    185
29.66    273
29.68    295
29.7     321
29.72    338
29.74    313
29.76    295
29.78    277
29.8     298
29.82    305
29.84    253
29.86    328
29.88    308
29.9     307
29.92    290
29.94    224
29.96    197
29.98    194
30.0     215
30.02    246
30.04    224
30.06    340
30.08    361
30.1     402
30.12    362
30.14    274
30.16    276
30.18    326
30.2     402
30.22    444
30.24    413
30.26    377
30.28    290
30.3     218
30.32    119
30.34    100
30.36    103
30.38    163
30.4     190
30.42    183
30.44    183
30.46    154
30.48    145
30.5     174
30.52    190
30.54    269
30.56    303
30.58    357
30.6     395
30.62    418
30.64    444
30.66    457
30.68    378
30.7     319
30.72    222
30.74    188
30.76    169
30.78    174
30.8     263
30.82    267
30.84    265
30.86    224
30.88    167
30.9     187
30.92    178
30.94    223
30.96    241
30.98    290
31.0     346
31.02    346
31.04    364
31.06    307
31.08    293
31.1     286
31.12    241
31.14    277
31.16    293
31.18    326
31.2     350
31.22    328
31.24    303
31.26    219
31.28    173
31.3     123
31.32    107
31.34    204
31.36    239
31.38    315
31.4     338
31.42    236
31.44    223
31.46    186
31.48    181
31.5     196
31.52    225
31.54    234
31.56    212
31.58    243
31.6     208
31.62    149
31.64    218
31.66    201
31.68    299
31.7     327
31.72    345
31.74    351
31.76    361
31.78    361
31.8     351
31.82    298
31.84    288
31.86    241
31.88    273
31.9     181
31.92    175
31.94    188
31.96    244
31.98    313
32.0     414
32.02    435
32.04    436
32.06    461
32.08    425
32.1     369
32.12    413
32.14    427
32.16    519
32.18    558
32.2     548
32.22    522
32.24    509
32.26    509
32.28    507
32.3     574
32.32    629
32.34    665
32.36    712
32.38    695
32.4     617
32.42    601
32.44    570
32.46    483
32.48    445
32.5     418
32.52    359
32.54    388
32.56    407
32.58    400
32.6     403
32.62    371
32.64    317
32.66    293
32.68    263
32.7     318
32.72    342
32.74    403
32.76    497
32.78    484
32.8     494
32.82    446
32.84    390
32.86    421
32.88    430
32.9     471
32.92    471
32.94    493
32.96    567
32.98    544
33.0     503
33.02    438
33.04    378
33.06    360
33.08    350
33.1     342
33.12    338
33.14    393
33.16    463
33.18    484
33.2     486
33.22    476
33.24    528
33.26    601
33.28    727
33.3     875
33.32    1007
33.34    1196
33.36    1407
33.38    1756
33.4     2524
33.42    3903
33.44    6012
33.46    8560
33.48    11159
33.5     13180
33.52    14210
33.54    14309
33.56    13391
33.58    11531
33.6     9145
33.62    6735
33.64    4744
33.66    3177
33.68    2046
33.7     1145
33.72    480
33.74    340
33.76    341
33.78    368
33.8     386
33.82    381
33.84    425
33.86    443
33.88    430
33.9     390
33.92    366
33.94    360
33.96    360
33.98    433
34.0     469
34.02    505
34.04    552
34.06    514
34.08    483
34.1     429
34.12    450
34.14    375
34.16    416
34.18    430
34.2     380
34.22    357
34.24    338
34.26    263
34.28    284
34.3     295
34.32    447
34.34    508
34.36    594
34.38    652
34.4     659
34.42    557
34.44    438
34.46    347
34.48    289
34.5     286
34.52    395
34.54    450
34.56    456
34.58    523
34.6     519
34.62    418
34.64    304
34.66    308
34.68    326
34.7     332
34.72    379
34.74    428
34.76    430
34.78    439
34.8     421
34.82    400
34.84    358
34.86    389
34.88    433
34.9     421
34.92    425
34.94    495
34.96    548
34.98    566
35.0     694
35.02    856
35.04    1207
35.06    1962
35.08    3113
35.1     4510
35.12    6109
35.14    8155
35.16    10105
35.18    11680
35.2     12420
35.22    12107
35.24    10880
35.26    9037
35.28    6833
35.3     4566
35.32    2668
35.34    1544
35.36    897
35.38    749
35.4     700
35.42    719
35.44    725
35.46    734
35.48    736
35.5     769
35.52    737
35.54    620
35.56    529
35.58    457
35.6     418
35.62    466
35.64    534
35.66    601
35.68    599
35.7     596
35.72    532
35.74    432
35.76    384
35.78    340
35.8     294
35.82    379
35.84    437
35.86    526
35.88    536
35.9     527
35.92    512
35.94    510
35.96    449
35.98    447
36.0     396
36.02    401
36.04    418
36.06    464
36.08    453
36.1     479
36.12    523
36.14    554
36.16    582
36.18    676
36.2     740
36.22    725
36.24    783
36.26    840
36.28    835
36.3     945
36.32    1030
36.34    1135
36.36    1377
36.38    1721
36.4     2500
36.42    4081
36.44    6533
36.46    9777
36.48    13889
36.5     18648
36.52    23194
36.54    26282
36.56    27098
36.58    25441
36.6     21854
36.62    17231
36.64    12100
36.66    7359
36.68    3916
36.7     1989
36.72    1227
36.74    878
36.76    722
36.78    655
36.8     623
36.82    698
36.84    749
36.86    775
36.88    805
36.9     814
36.92    770
36.94    673
36.96    629
36.98    602
37.0     578
37.02    589
37.04    629
37.06    671
37.08    841
37.1     907
37.12    1030
37.14    1068
37.16    1086
37.18    1080
37.2     1073
37.22    998
37.24    906
37.26    834
37.28    762
37.3     593
37.32    577
37.34    587
37.36    670
37.38    808
37.4     1026
37.42    1152
37.44    1180
37.46    1131
37.48    908
37.5     667
37.52    418
37.54    275
37.56    244
37.58    299
37.6     409
37.62    503
37.64    538
37.66    562
37.68    514
37.7     525
37.72    466
37.74    488
37.76    587
37.78    636
37.8     555
37.82    610
37.84    608
37.86    605
37.88    583
37.9     689
37.92    638
37.94    656
37.96    648
37.98    636
38.0     511
38.02    521
38.04    474
38.06    473
38.08    425
38.1     441
38.12    379
38.14    390
38.16    336
38.18    384
38.2     368
38.22    393
38.24    445
38.26    423
38.28    346
38.3     305
38.32    274
38.34    297
38.36    273
38.38    349
38.4     425
38.42    479
38.44    539
38.46    498
38.48    521
38.5     503
38.52    418
38.54    337
38.56    292
38.58    311
38.6     278
38.62    293
38.64    340
38.66    361
38.68    412
38.7     439
38.72    377
38.74    351
38.76    394
38.78    471
38.8     392
38.82    422
38.84    403
38.86    344
38.88    313
38.9     336
38.92    292
38.94    305
38.96    303
38.98    328
39.0     284
39.02    374
39.04    381
39.06    399
39.08    432
39.1     423
39.12    390
39.14    382
39.16    333
39.18    295
39.2     308
39.22    439
39.24    468
39.26    439
39.28    417
39.3     360
39.32    292
39.34    301
39.36    314
39.38    358
39.4     465
39.42    579
39.44    588
39.46    535
39.48    462
39.5     349
39.52    210
39.54    159
39.56    158
39.58    229
39.6     345
39.62    355
39.64    436
39.66    427
39.68    388
39.7     332
39.72    315
39.74    321
39.76    381
39.78    444
39.8     570
39.82    571
39.84    558
39.86    487
39.88    416
39.9     284
39.92    183
39.94    116
39.96    162
39.98    216
40.0     338
40.02    437
40.04    526
40.06    631
40.08    707
40.1     724
40.12    749
40.14    765
40.16    761
40.18    762
40.2     697
40.22    676
40.24    643
40.26    663
40.28    708
40.3     712
40.32    775
40.34    728
40.36    677
40.38    671
40.4     595
40.42    522
40.44    534
40.46    576
40.48    604
40.5     643
40.52    744
40.54    729
40.56    756
40.58    763
40.6     757
40.62    675
40.64    600
40.66    531
40.68    562
40.7     609
40.72    692
40.74    744
40.76    823
40.78    898
40.8     873
40.82    770
40.84    634
40.86    560
40.88    550
40.9     545
40.92    589
40.94    691
40.96    852
40.98    944
41.0     1001
41.02    1035
41.04    942
41.06    882
41.08    839
41.1     785
41.12    761
41.14    821
41.16    895
41.18    956
41.2     1102
41.22    1173
41.24    1228
41.26    1353
41.28    1500
41.3     1600
41.32    1793
41.34    2081
41.36    2365
41.38    2760
41.4     3142
41.42    3720
41.44    4636
41.46    6480
41.48    10820
41.5     20194
41.52    37039
41.54    61032
41.56    86157
41.58    105065
41.6     113016
41.62    108990
41.64    94083
41.66    71472
41.68    46070
41.7     24002
41.72    9972
41.74    4590
41.76    3458
41.78    3052
41.8     2331
41.82    1720
41.84    1517
41.86    1552
41.88    1657
41.9     1722
41.92    1673
41.94    1577
41.96    1424
41.98    1301
42.0     1095
42.02    961
42.04    939
42.06    893
42.08    916
42.1     890
42.12    823
42.14    773
42.16    826
42.18    870
42.2     886
42.22    931
42.24    1013
42.26    948
42.28    888
42.3     770
42.32    642
42.34    549
42.36    535
42.38    562
42.4     651
42.42    784
42.44    894
42.46    914
42.48    888
42.5     814
42.52    749
42.54    699
42.56    624
42.58    575
42.6     590
42.62    610
42.64    606
42.66    644
42.68    639
42.7     652
42.72    709
42.74    772
42.76    772
42.78    745
42.8     702
42.82    650
42.84    586
42.86    533
42.88    469
42.9     504
42.92    566
42.94    619
42.96    678
42.98    788
43.0     840
43.02    922
43.04    963
43.06    970
43.08    991
43.1     1144
43.12    1255
43.14    1393
43.16    1555
43.18    1691
43.2     1746
43.22    1683
43.24    1564
43.26    1333
43.28    1083
43.3     922
43.32    705
43.34    524
43.36    430
43.38    429
43.4     489
43.42    472
43.44    502
43.46    584
43.48    619
43.5     584
43.52    603
43.54    594
43.56    606
43.58    574
43.6     602
43.62    617
43.64    571
43.66    617
43.68    584
43.7     608
43.72    678
43.74    656
43.76    629
43.78    570
43.8     613
43.82    594
43.84    597
43.86    623
43.88    645
43.9     670
43.92    570
43.94    498
43.96    394
43.98    347
44.0     321
44.02    353
44.04    463
44.06    521
44.08    551
44.1     499
44.12    461
44.14    400
44.16    271
44.18    300
44.2     326
44.22    424
44.24    462
44.26    508
44.28    557
44.3     556
44.32    568
44.34    526
44.36    472
44.38    466
44.4     453
44.42    434
44.44    444
44.46    431
44.48    514
44.5     520
44.52    557
44.54    607
44.56    605
44.58    621
44.6     661
44.62    670
44.64    659
44.66    604
44.68    578
44.7     436
44.72    368
44.74    367
44.76    334
44.78    383
44.8     413
44.82    516
44.84    563
44.86    612
44.88    627
44.9     606
44.92    592
44.94    623
44.96    684
44.98    914
45.0     1296
45.02    1932
45.04    2437
45.06    2822
45.08    2970
45.1     2821
45.12    2446
45.14    1994
45.16    1502
45.18    1048
45.2     796
45.22    751
45.24    661
45.26    583
45.28    474
45.3     405
45.32    373
45.34    343
45.36    328
45.38    346
45.4     406
45.42    519
45.44    567
45.46    611
45.48    660
45.5     665
45.52    585
45.54    457
45.56    397
45.58    411
45.6     435
45.62    451
45.64    481
45.66    572
45.68    630
45.7     582
45.72    525
45.74    491
45.76    406
45.78    408
45.8     420
45.82    429
45.84    497
45.86    532
45.88    593
45.9     553
45.92    548
45.94    525
45.96    425
45.98    429
46.0     432
46.02    502
46.04    569
46.06    595
46.08    682
46.1     632
46.12    555
46.14    451
46.16    359
46.18    320
46.2     290
46.22    348
46.24    450
46.26    555
46.28    670
46.3     675
46.32    716
46.34    674
46.36    604
46.38    528
46.4     445
46.42    461
46.44    424
46.46    477
46.48    445
46.5     446
46.52    486
46.54    421
46.56    429
46.58    429
46.6     486
46.62    550
46.64    543
46.66    601
46.68    514
46.7     515
46.72    456
46.74    382
46.76    363
46.78    316
46.8     346
46.82    335
46.84    338
46.86    335
46.88    380
46.9     450
46.92    455
46.94    462
46.96    502
46.98    532
47.0     565
47.02    537
47.04    516
47.06    529
47.08    512
47.1     460
47.12    417
47.14    432
47.16    407
47.18    382
47.2     416
47.22    460
47.24    493
47.26    446
47.28    437
47.3     475
47.32    476
47.34    490
47.36    444
47.38    452
47.4     540
47.42    563
47.44    552
47.46    488
47.48    571
47.5     580
47.52    540
47.54    478
47.56    408
47.58    408
47.6     423
47.62    331
47.64    249
47.66    267
47.68    323
47.7     393
47.72    464
47.74    512
47.76    566
47.78    683
47.8     698
47.82    590
47.84    491
47.86    520
47.88    470
47.9     433
47.92    414
47.94    418
47.96    450
47.98    489
48.0     538
48.02    540
48.04    568
48.06    612
48.08    570
48.1     555
48.12    548
48.14    582
48.16    490
48.18    446
48.2     488
48.22    464
48.24    478
48.26    455
48.28    469
48.3     550
48.32    539
48.34    555
48.36    453
48.38    482
48.4     477
48.42    426
48.44    381
48.46    345
48.48    342
48.5     379
48.52    371
48.54    433
48.56    470
48.58    548
48.6     554
48.62    502
48.64    485
48.66    487
48.68    460
48.7     452
48.72    424
48.74    429
48.76    439
48.78    504
48.8     417
48.82    377
48.84    411
48.86    488
48.88    517
48.9     503
48.92    536
48.94    576
48.96    613
48.98    578
49.0     461
49.02    494
49.04    469
49.06    461
49.08    404
49.1     366
49.12    407
49.14    372
49.16    379
49.18    383
49.2     448
49.22    461
49.24    460
49.26    454
49.28    413
49.3     401
49.32    371
49.34    317
49.36    322
49.38    371
49.4     385
49.42    346
49.44    381
49.46    419
49.48    439
49.5     469
49.52    518
49.54    589
49.56    625
49.58    624
49.6     603
49.62    600
49.64    571
49.66    522
49.68    464
49.7     453
49.72    487
49.74    461
49.76    401
49.78    354
49.8     409
49.82    457
49.84    402
49.86    331
49.88    361
49.9     382
49.92    421
49.94    408
49.96    457
49.98    543
50.0     624
50.02    583
50.04    528
50.06    494
50.08    500
50.1     358
50.12    261
50.14    240
50.16    303
50.18    402
50.2     497
50.22    560
50.24    690
50.26    740
50.28    755
50.3     620
50.32    474
50.34    402
50.36    343
50.38    335
50.4     356
50.42    321
50.44    348
50.46    339
50.48    404
50.5     444
50.52    430
50.54    480
50.56    519
50.58    556
50.6     520
50.62    453
50.64    392
50.66    339
50.68    348
50.7     310
50.72    297
50.74    334
50.76    352
50.78    372
50.8     380
50.82    446
50.84    494
50.86    547
50.88    574
50.9     571
50.92    592
50.94    555
50.96    459
50.98    363
51.0     329
51.02    320
51.04    326
51.06    297
51.08    357
51.1     459
51.12    587
51.14    631
51.16    618
51.18    620
51.2     652
51.22    636
51.24    581
51.26    532
51.28    530
51.3     545
51.32    572
51.34    532
51.36    498
51.38    466
51.4     441
51.42    461
51.44    472
51.46    489
51.48    506
51.5     511
51.52    544
51.54    550
51.56    493
51.58    424
51.6     386
51.62    390
51.64    355
51.66    370
51.68    404
51.7     467
51.72    520
51.74    510
51.76    460
51.78    432
51.8     480
51.82    491
51.84    485
51.86    501
51.88    510
51.9     507
51.92    471
51.94    402
51.96    345
51.98    355
52.0     412
52.02    467
52.04    540
52.06    579
52.08    654
52.1     689
52.12    682
52.14    690
52.16    608
52.18    638
52.2     672
52.22    697
52.24    657
52.26    648
52.28    660
52.3     677
52.32    621
52.34    528
52.36    419
52.38    442
52.4     434
52.42    411
52.44    359
52.46    380
52.48    487
52.5     613
52.52    613
52.54    544
52.56    560
52.58    564
52.6     531
52.62    513
52.64    428
52.66    409
52.68    495
52.7     508
52.72    450
52.74    460
52.76    524
52.78    624
52.8     654
52.82    645
52.84    574
52.86    595
52.88    582
52.9     493
52.92    394
52.94    305
52.96    348
52.98    410
53.0     454
53.02    483
53.04    545
53.06    667
53.08    738
53.1     768
53.12    776
53.14    710
53.16    756
53.18    745
53.2     731
53.22    686
53.24    678
53.26    719
53.28    752
53.3     760
53.32    788
53.34    852
53.36    1268
53.38    2445
53.4     4682
53.42    7788
53.44    10788
53.46    12852
53.48    13625
53.5     12830
53.52    10775
53.54    7825
53.56    4764
53.58    2376
53.6     1115
53.62    851
53.64    860
53.66    863
53.68    905
53.7     799
53.72    752
53.74    763
53.76    746
53.78    693
53.8     598
53.82    572
53.84    533
53.86    512
53.88    511
53.9     484
53.92    537
53.94    598
53.96    591
53.98    592
54.0     547
54.02    554
54.04    540
54.06    530
54.08    568
54.1     601
54.12    671
54.14    705
54.16    691
54.18    637
54.2     584
54.22    596
54.24    495
54.26    472
54.28    435
54.3     376
54.32    399
54.34    417
54.36    399
54.38    405
54.4     416
54.42    503
54.44    520
54.46    554
54.48    529
54.5     555
54.52    595
54.54    617
54.56    583
54.58    542
54.6     473
54.62    489
54.64    513
54.66    489
54.68    525
54.7     511
54.72    485
54.74    558
54.76    559
54.78    546
54.8     529
54.82    571
54.84    623
54.86    612
54.88    579
54.9     411
54.92    363
54.94    375
54.96    382
54.98    378
55.0     371
55.02    429
55.04    529
55.06    596
55.08    627
55.1     584
55.12    593
55.14    537
55.16    552
55.18    537
55.2     496
55.22    522
55.24    550
55.26    603
55.28    644
55.3     684
55.32    689
55.34    572
55.36    532
55.38    504
55.4     422
55.42    347
55.44    283
55.46    220
55.48    241
55.5     350
55.52    402
55.54    379
55.56    463
55.58    550
55.6     630
55.62    691
55.64    732
55.66    692
55.68    703
55.7     735
55.72    692
55.74    541
55.76    480
55.78    446
55.8     426
55.82    438
55.84    409
55.86    410
55.88    392
55.9     500
55.92    532
55.94    505
55.96    537
55.98    546
56.0     559
56.02    649
56.04    678
56.06    648
56.08    581
56.1     609
56.12    597
56.14    585
56.16    578
56.18    478
56.2     449
56.22    463
56.24    503
56.26    471
56.28    427
56.3     425
56.32    492
56.34    540
56.36    645
56.38    568
56.4     539
56.42    574
56.44    609
56.46    638
56.48    585
56.5     571
56.52    537
56.54    616
56.56    649
56.58    538
56.6     515
56.62    521
56.64    498
56.66    463
56.68    470
56.7     436
56.72    440
56.74    539
56.76    560
56.78    587
56.8     608
56.82    604
56.84    558
56.86    514
56.88    573
56.9     531
56.92    523
56.94    468
56.96    481
56.98    529
57.0     498
57.02    486
57.04    507
57.06    552
57.08    618
57.1     658
57.12    659
57.14    638
57.16    690
57.18    704
57.2     650
57.22    636
57.24    610
57.26    553
57.28    512
57.3     543
57.32    511
57.34    553
57.36    602
57.38    635
57.4     666
57.42    701
57.44    687
57.46    656
57.48    633
57.5     614
57.52    560
57.54    528
57.56    538
57.58    551
57.6     547
57.62    564
57.64    577
57.66    575
57.68    589
57.7     616
57.72    688
57.74    710
57.76    783
57.78    747
57.8     713
57.82    728
57.84    699
57.86    657
57.88    635
57.9     668
57.92    770
57.94    851
57.96    939
57.98    1002
58.0     1070
58.02    1182
58.04    1224
58.06    1242
58.08    1207
58.1     1237
58.12    1334
58.14    1771
58.16    2985
58.18    5789
58.2     10564
58.22    16662
58.24    22662
58.26    27140
58.28    28981
58.3     27935
58.32    24127
58.34    18450
58.36    12162
58.38    6988
58.4     3685
58.42    2002
58.44    1412
58.46    1208
58.48    1095
58.5     1079
58.52    1074
58.54    1020
58.56    967
58.58    960
58.6     863
58.62    771
58.64    804
58.66    780
58.68    699
58.7     698
58.72    642
58.74    562
58.76    574
58.78    569
58.8     487
58.82    491
58.84    597
58.86    617
58.88    574
58.9     608
58.92    661
58.94    660
58.96    712
58.98    752
59.0     681
59.02    664
59.04    641
59.06    587
59.08    479
59.1     458
59.12    481
59.14    439
59.16    501
59.18    579
59.2     590
59.22    632
59.24    690
59.26    697
59.28    679
59.3     679
59.32    615
59.34    550
59.36    509
59.38    452
59.4     444
59.42    413
59.44    404
59.46    371
59.48    388
59.5     452
59.52    501
59.54    541
59.56    544
59.58    591
59.6     682
59.62    656
59.64    652
59.66    630
59.68    563
59.7     551
59.72    516
59.74    507
59.76    492
59.78    532
59.8     556
59.82    517
59.84    476
59.86    471
59.88    417
59.9     454
59.92    449
59.94    566
59.96    640
59.98    723
60.0     801
60.02    787
60.04    721
60.06    659
60.08    552
60.1     446
60.12    318
60.14    323
60.16    299
60.18    366
60.2     453
60.22    549
60.24    674
60.26    773
60.28    805
60.3     733
60.32    682
60.34    594
60.36    530
60.38    494
60.4     431
60.42    427
60.44    474
60.46    555
60.48    620
60.5     630
60.52    636
60.54    592
60.56    619
60.58    577
60.6     608
60.62    527
60.64    504
60.66    524
60.68    524
60.7     541
60.72    516
60.74    520
60.76    540
60.78    481
60.8     554
60.82    455
60.84    426
60.86    414
60.88    422
60.9     488
60.92    576
60.94    661
60.96    688
60.98    675
61.0     772
61.02    733
61.04    695
61.06    671
61.08    586
61.1     507
61.12    497
61.14    518
61.16    440
61.18    378
61.2     401
61.22    403
61.24    404
61.26    486
61.28    512
61.3     538
61.32    653
61.34    714
61.36    644
61.38    597
61.4     543
61.42    572
61.44    511
61.46    577
61.48    564
61.5     556
61.52    584
61.54    593
61.56    617
61.58    608
61.6     558
61.62    602
61.64    546
61.66    551
61.68    521
61.7     488
61.72    501
61.74    520
61.76    534
61.78    571
61.8     569
61.82    637
61.84    672
61.86    734
61.88    771
61.9     847
61.92    870
61.94    849
61.96    843
61.98    858
62.0     886
62.02    1105
62.04    1669
62.06    2659
62.08    3967
62.1     5413
62.12    6597
62.14    7571
62.16    8314
62.18    8994
62.2     9725
62.22    10792
62.24    12189
62.26    13712
62.28    14963
62.3     15637
62.32    15413
62.34    14397
62.36    12704
62.38    10698
62.4     8586
62.42    6690
62.44    5031
62.46    3764
62.48    2789
62.5     2213
62.52    1765
62.54    1474
62.56    1248
62.58    1164
62.6     1066
62.62    1030
62.64    1066
62.66    1117
62.68    1134
62.7     1218
62.72    1236
62.74    1274
62.76    1216
62.78    1178
62.8     1113
62.82    1065
62.84    1041
62.86    957
62.88    880
62.9     836
62.92    807
62.94    794
62.96    686
62.98    627
63.0     625
63.02    565
63.04    558
63.06    523
63.08    570
63.1     593
63.12    568
63.14    600
63.16    607
63.18    620
63.2     678
63.22    679
63.24    664
63.26    622
63.28    636
63.3     579
63.32    521
63.34    520
63.36    454
63.38    430
63.4     485
63.42    505
63.44    536
63.46    552
63.48    559
63.5     591
63.52    587
63.54    621
63.56    561
63.58    557
63.6     588
63.62    564
63.64    604
63.66    586
63.68    562
63.7     560
63.72    533
63.74    605
63.76    590
63.78    603
63.8     626
63.82    637
63.84    672
63.86    666
63.88    609
63.9     574
63.92    525
63.94    462
63.96    392
63.98    337
64.0     321
64.02    340
64.04    365
64.06    407
64.08    412
64.1     488
64.12    527
64.14    634
64.16    730
64.18    793
64.2     825
64.22    853
64.24    808
64.26    766
64.28    646
64.3     549
64.32    405
64.34    400
64.36    391
64.38    362
64.4     334
64.42    386
64.44    369
64.46    430
64.48    424
64.5     496
64.52    581
64.54    694
64.56    798
64.58    877
64.6     843
64.62    891
64.64    836
64.66    799
64.68    719
64.7     743
64.72    891
64.74    1168
64.76    1519
64.78    1943
64.8     2252
64.82    2657
64.84    3012
64.86    3356
64.88    3784
64.9     4197
64.92    4715
64.94    5120
64.96    5300
64.98    5262
65.0     4948
65.02    4375
65.04    3693
65.06    2970
65.08    2364
65.1     1825
65.12    1463
65.14    1156
65.16    957
65.18    836
65.2     782
65.22    718
65.24    656
65.26    648
65.28    568
65.3     501
65.32    468
65.34    532
65.36    510
65.38    528
65.4     553
65.42    608
65.44    658
65.46    745
65.48    725
65.5     735
65.52    715
65.54    738
65.56    690
65.58    665
65.6     551
65.62    495
65.64    451
65.66    407
65.68    392
65.7     465
65.72    473
65.74    505
65.76    555
65.78    609
65.8     608
65.82    645
65.84    642
65.86    628
65.88    563
65.9     582
65.92    523
65.94    490
65.96    502
65.98    509
66.0     496
66.02    483
66.04    461
66.06    494
66.08    476
66.1     554
66.12    617
66.14    649
66.16    621
66.18    591
66.2     590
66.22    578
66.24    525
66.26    537
66.28    515
66.3     506
66.32    532
66.34    530
66.36    480
66.38    439
66.4     435
66.42    427
66.44    392
66.46    440
66.48    480
66.5     448
66.52    455
66.54    506
66.56    563
66.58    557
66.6     587
66.62    594
66.64    616
66.66    657
66.68    673
66.7     596
66.72    539
66.74    437
66.76    419
66.78    398
66.8     360
66.82    347
66.84    395
66.86    429
66.88    508
66.9     497
66.92    577
66.94    535
66.96    551
66.98    569
67.0     537
67.02    546
67.04    562
67.06    475
67.08    474
67.1     414
67.12    461
67.14    493
67.16    519
67.18    546
67.2     590
67.22    617
67.24    641
67.26    541
67.28    536
67.3     465
67.32    431
67.34    372
67.36    352
67.38    345
67.4     419
67.42    475
67.44    553
67.46    591
67.48    618
67.5     619
67.52    587
67.54    542
67.56    556
67.58    514
67.6     495
67.62    469
67.64    531
67.66    552
67.68    554
67.7     586
67.72    554
67.74    610
67.76    598
67.78    576
67.8     551
67.82    550
67.84    522
67.86    434
67.88    394
67.9     391
67.92    385
67.94    451
67.96    443
67.98    476
68.0     507
68.02    491
68.04    469
68.06    472
68.08    480
68.1     447
68.12    444
68.14    505
68.16    528
68.18    491
68.2     511
68.22    521
68.24    557
68.26    581
68.28    592
68.3     567
68.32    528
68.34    557
68.36    597
68.38    611
68.4     687
68.42    735
68.44    729
68.46    742
68.48    704
68.5     650
68.52    589
68.54    548
68.56    535
68.58    536
68.6     482
68.62    485
68.64    475
68.66    511
68.68    563
68.7     666
68.72    747
68.74    792
68.76    854
68.78    971
68.8     1207
68.82    1779
68.84    2564
68.86    3553
68.88    4662
68.9     5619
68.92    6217
68.94    6513
68.96    6439
68.98    5935
69.0     5172
69.02    4288
69.04    3416
69.06    2675
69.08    2026
69.1     1532
69.12    1137
69.14    929
69.16    846
69.18    745
69.2     648
69.22    548
69.24    467
69.26    483
69.28    454
69.3     473
69.32    440
69.34    497
69.36    486
69.38    536
69.4     561
69.42    582
69.44    630
69.46    686
69.48    690
69.5     647
69.52    555
69.54    546
69.56    519
69.58    537
69.6     538
69.62    545
69.64    525
69.66    527
69.68    542
69.7     463
69.72    412
69.74    385
69.76    386
69.78    411
69.8     451
69.82    447
69.84    467
69.86    555
69.88    571
69.9     559
69.92    597
69.94    597
69.96    595
69.98    655
70.0     635
70.02    601
70.04    624
70.06    532
70.08    532
70.1     516
70.12    478
70.14    486
70.16    478
70.18    473
70.2     453
70.22    496
70.24    486
70.26    558
70.28    744
70.3     961
70.32    1269
70.34    1590
70.36    1965
70.38    2233
70.4     2450
70.42    2584
70.44    2630
70.46    2625
70.48    2466
70.5     2328
70.52    2104
70.54    1872
70.56    1646
70.58    1487
70.6     1444
70.62    1453
70.64    1479
70.66    1427
70.68    1312
70.7     1219
70.72    1008
70.74    813
70.76    672
70.78    648
70.8     587
70.82    603
70.84    598
70.86    585
70.88    552
70.9     543
70.92    492
70.94    456
70.96    468
70.98    470
71.0     479
71.02    517
71.04    505
71.06    433
71.08    436
71.1     448
71.12    424
71.14    419
71.16    440
71.18    531
71.2     594
71.22    549
71.24    534
71.26    541
71.28    632
71.3     645
71.32    678
71.34    696
71.36    698
71.38    683
71.4     616
71.42    612
71.44    601
71.46    582
71.48    545
71.5     472
71.52    453
71.54    406
71.56    400
71.58    412
71.6     464
71.62    505
71.64    476
71.66    480
71.68    470
71.7     485
71.72    538
71.74    594
71.76    640
71.78    637
71.8     624
71.82    532
71.84    522
71.86    577
71.88    578
71.9     612
71.92    651
71.94    626
71.96    601
71.98    579
72.0     605
72.02    619
72.04    642
72.06    629
72.08    639
72.1     640
72.12    622
72.14    531
72.16    534
72.18    571
72.2     616
72.22    629
72.24    614
72.26    582
72.28    642
72.3     604
72.32    626
72.34    630
72.36    644
72.38    661
72.4     720
72.42    819
72.44    1112
72.46    1530
72.48    2081
72.5     2690
72.52    3496
72.54    4379
72.56    5340
72.58    6310
72.6     7051
72.62    7438
72.64    7440
72.66    6937
72.68    6088
72.7     4861
72.72    3697
72.74    2609
72.76    1888
72.78    1431
72.8     1142
72.82    1023
72.84    958
72.86    935
72.88    906
72.9     821
72.92    793
72.94    699
72.96    697
72.98    686
73.0     736
73.02    748
73.04    745
73.06    678
73.08    583
73.1     532
73.12    463
73.14    440
73.16    414
73.18    476
73.2     544
73.22    473
73.24    519
73.26    527
73.28    556
73.3     587
73.32    646
73.34    665
73.36    765
73.38    860
73.4     915
73.42    902
73.44    992
73.46    971
73.48    888
73.5     858
73.52    861
73.54    883
73.56    1010
73.58    1091
73.6     1177
73.62    1190
73.64    1188
73.66    1155
73.68    1133
73.7     1090
73.72    1050
73.74    1026
73.76    1025
73.78    960
73.8     906
73.82    833
73.84    751
73.86    723
73.88    684
73.9     610
73.92    619
73.94    550
73.96    521
73.98    477
74.0     514
74.02    517
74.04    522
74.06    528
74.08    528
74.1     522
74.12    574
74.14    563
74.16    620
74.18    810
74.2     1039
74.22    1251
74.24    1432
74.26    1528
74.28    1624
74.3     1620
74.32    1660
74.34    1639
74.36    1639
74.38    1823
74.4     1990
74.42    2130
74.44    2251
74.46    2381
74.48    2429
74.5     2362
74.52    2260
74.54    2029
74.56    1801
74.58    1629
74.6     1429
74.62    1427
74.64    1440
74.66    1609
74.68    1883
74.7     2216
74.72    2678
74.74    3044
74.76    3374
74.78    3527
74.8     3534
74.82    3491
74.84    3099
74.86    2721
74.88    2342
74.9     1926
74.92    1698
74.94    1414
74.96    1274
74.98    1115
75.0     1032
75.02    917
75.04    722
75.06    680
75.08    669
75.1     660
75.12    734
75.14    728
75.16    776
75.18    772
75.2     783
75.22    773
75.24    756
75.26    818
75.28    864
75.3     839
75.32    857
75.34    767
75.36    662
75.38    648
75.4     672
75.42    717
75.44    714
75.46    696
75.48    694
75.5     557
75.52    568
75.54    505
75.56    473
75.58    523
75.6     512
75.62    473
75.64    457
75.66    439
75.68    485
75.7     496
75.72    618
75.74    627
75.76    670
75.78    674
75.8     630
75.82    575
75.84    594
75.86    621
75.88    670
75.9     689
75.92    676
75.94    609
75.96    645
75.98    638
76.0     628
76.02    617
76.04    636
76.06    642
76.08    617
76.1     559
76.12    522
76.14    548
76.16    631
76.18    614
76.2     613
76.22    562
76.24    547
76.26    513
76.28    467
76.3     399
76.32    434
76.34    518
76.36    600
76.38    597
76.4     611
76.42    582
76.44    647
76.46    657
76.48    643
76.5     601
76.52    616
76.54    644
76.56    622
76.58    547
76.6     480
76.62    418
76.64    420
76.66    383
76.68    373
76.7     382
76.72    441
76.74    490
76.76    448
76.78    460
76.8     503
76.82    514
76.84    532
76.86    551
76.88    604
76.9     613
76.92    563
76.94    553
76.96    538
76.98    593
77.0     654
77.02    677
77.04    694
77.06    721
77.08    686
77.1     632
77.12    561
77.14    600
77.16    628
77.18    615
77.2     601
77.22    578
77.24    563
77.26    517
77.28    438
77.3     441
77.32    456
77.34    520
77.36    540
77.38    552
77.4     620
77.42    701
77.44    938
77.46    1235
77.48    1683
77.5     2242
77.52    2728
77.54    3110
77.56    3384
77.58    3586
77.6     3718
77.62    3871
77.64    4250
77.66    4725
77.68    5254
77.7     5751
77.72    6063
77.74    6160
77.76    5995
77.78    5543
77.8     4875
77.82    4159
77.84    3497
77.86    2854
77.88    2207
77.9     1797
77.92    1524
77.94    1323
77.96    1126
77.98    966
78.0     830
78.02    793
78.04    824
78.06    747
78.08    725
78.1     806
78.12    796
78.14    767
78.16    667
78.18    618
78.2     593
78.22    640
78.24    692
78.26    636
78.28    664
78.3     646
78.32    560
78.34    509
78.36    440
78.38    455
78.4     502
78.42    524
78.44    492
78.46    459
78.48    479
78.5     468
78.52    453
78.54    491
78.56    543
78.58    586
78.6     604
78.62    565
78.64    480
78.66    416
78.68    452
78.7     447
78.72    446
78.74    491
78.76    536
78.78    550
78.8     564
78.82    603
78.84    574
78.86    537
78.88    579
78.9     598
78.92    595
78.94    577
78.96    620
78.98    641
79.0     642
79.02    678
79.04    641
79.06    614
79.08    607
79.1     609
79.12    629
79.14    606
79.16    632
79.18    666
79.2     674
79.22    668
79.24    607
79.26    594
79.28    557
79.3     544
79.32    565
79.34    576
79.36    561
79.38    615
79.4     604
79.42    577
79.44    541
79.46    538
79.48    561
79.5     592
79.52    624
79.54    609
79.56    536
79.58    508
79.6     468
79.62    447
79.64    485
79.66    505
79.68    595
79.7     603
79.72    593
79.74    529
79.76    482
79.78    480
79.8     494
79.82    529
79.84    564
79.86    560
79.88    563
79.9     552
79.92    556
79.94    534
79.96    550
79.98    600
80.0     616
80.02    622
80.04    591
80.06    605
80.08    669
80.1     752
80.12    800
80.14    829
80.16    864
80.18    909
80.2     847
80.22    865
80.24    851
80.26    859
80.28    892
80.3     863
80.32    771
80.34    705
80.36    595
80.38    509
80.4     448
80.42    495
80.44    530
80.46    512
80.48    503
80.5     525
80.52    535
80.54    538
80.56    557
80.58    547
80.6     590
80.62    664
80.64    701
80.66    578
80.68    530
80.7     598
80.72    663
80.74    661
80.76    654
80.78    630
80.8     584
80.82    593
80.84    543
80.86    465
80.88    463
80.9     547
80.92    626
80.94    616
80.96    570
80.98    560
81.0     498
81.02    482
81.04    519
81.06    519
81.08    510
81.1     531
81.12    574
81.14    548
81.16    458
81.18    412
81.2     401
81.22    468
81.24    567
81.26    542
81.28    505
81.3     566
81.32    625
81.34    612
81.36    556
81.38    554
81.4     658
81.42    719
81.44    753
81.46    668
81.48    609
81.5     649
81.52    632
81.54    492
81.56    445
81.58    419
81.6     484
81.62    477
81.64    528
81.66    509
81.68    466
81.7     513
81.72    526
81.74    477
81.76    519
81.78    546
81.8     605
81.82    636
81.84    632
81.86    564
81.88    507
81.9     503
81.92    552
81.94    582
81.96    603
81.98    616
82.0     599
82.02    553
82.04    478
82.06    447
82.08    475
82.1     481
82.12    552
82.14    632
82.16    679
82.18    659
82.2     630
82.22    558
82.24    524
82.26    560
82.28    518
82.3     486
82.32    485
82.34    511
82.36    490
82.38    412
82.4     404
82.42    389
82.44    477
82.46    546
82.48    521
82.5     583
82.52    575
82.54    594
82.56    555
82.58    481
82.6     452
82.62    431
82.64    445
82.66    451
82.68    436
82.7     460
82.72    423
82.74    486
82.76    483
82.78    478
82.8     467
82.82    459
82.84    476
82.86    459
82.88    461
82.9     424
82.92    434
82.94    467
82.96    525
82.98    523
83.0     497
83.02    499
83.04    507
83.06    526
83.08    532
83.1     513
83.12    539
83.14    541
83.16    567
83.18    537
83.2     492
83.22    480
83.24    529
83.26    596
83.28    642
83.3     669
83.32    651
83.34    625
83.36    599
83.38    534
83.4     531
83.42    518
83.44    519
83.46    513
83.48    503
83.5     435
83.52    424
83.54    383
83.56    362
83.58    361
83.6     482
83.62    555
83.64    605
83.66    634
83.68    606
83.7     571
83.72    590
83.74    522
83.76    511
83.78    543
83.8     547
83.82    560
83.84    576
83.86    524
83.88    452
83.9     422
83.92    395
83.94    359
83.96    365
83.98    426
84.0     441
84.02    488
84.04    537
84.06    560
84.08    544
84.1     583
84.12    559
84.14    501
84.16    495
84.18    557
84.2     576
84.22    528
84.24    547
84.26    527
84.28    476
84.3     438
84.32    376
84.34    358
84.36    418
84.38    446
84.4     457
84.42    460
84.44    470
84.46    408
84.48    377
84.5     354
84.52    379
84.54    462
84.56    512
84.58    535
84.6     601
84.62    609
84.64    600
84.66    546
84.68    529
84.7     584
84.72    693
84.74    754
84.76    812
84.78    840
84.8     880
84.82    834
84.84    846
84.86    744
84.88    687
84.9     660
84.92    702
84.94    671
84.96    632
84.98    568
85.0     531
85.02    442
85.04    491
85.06    440
85.08    432
85.1     432
85.12    533
85.14    541
85.16    560
85.18    504
85.2     507
85.22    472
85.24    538
85.26    521
85.28    515
85.3     505
85.32    542
85.34    530
85.36    526
85.38    429
85.4     421
85.42    384
85.44    409
85.46    437
85.48    454
85.5     481
85.52    524
85.54    563
85.56    556
85.58    522
85.6     507
85.62    505
85.64    533
85.66    545
85.68    569
85.7     607
85.72    585
85.74    618
85.76    574
85.78    533
85.8     545
85.82    508
85.84    458
85.86    412
85.88    357
85.9     374
85.92    346
85.94    436
85.96    495
85.98    549
86.0     624
86.02    656
86.04    652
86.06    581
86.08    534
86.1     557
86.12    551
86.14    622
86.16    652
86.18    632
86.2     641
86.22    592
86.24    545
86.26    328
86.28    306
86.3     294
86.32    357
86.34    489
86.36    596
86.38    789
86.4     927
86.42    1014
86.44    1120
86.46    1165
86.48    1344
86.5     1519
86.52    1724
86.54    1926
86.56    1997
86.58    2026
86.6     1878
86.62    1609
86.64    1353
86.66    1137
86.68    1008
86.7     909
86.72    894
86.74    940
86.76    906
86.78    844
86.8     756
86.82    606
86.84    539
86.86    529
86.88    582
86.9     565
86.92    615
86.94    607
86.96    554
86.98    507
87.0     440
87.02    404
87.04    457
87.06    531
87.08    596
87.1     597
87.12    615
87.14    531
87.16    456
87.18    433
87.2     411
87.22    428
87.24    504
87.26    535
87.28    560
87.3     617
87.32    615
87.34    545
87.36    560
87.38    569
87.4     560
87.42    533
87.44    547
87.46    484
87.48    506
87.5     502
87.52    510
87.54    565
87.56    630
87.58    598
87.6     549
87.62    549
87.64    492
87.66    427
87.68    449
87.7     377
87.72    456
87.74    493
87.76    529
87.78    584
87.8     615
87.82    643
87.84    612
87.86    649
87.88    637
87.9     613
87.92    627
87.94    586
87.96    593
87.98    612
88.0     585
88.02    612
88.04    648
88.06    666
88.08    573
88.1     540
88.12    467
88.14    450
88.16    455
88.18    434
88.2     412
88.22    510
88.24    525
88.26    500
88.28    432
88.3     405
88.32    386
88.34    481
88.36    576
88.38    623
88.4     666
88.42    674
88.44    630
88.46    609
88.48    576
88.5     568
88.52    558
88.54    599
88.56    641
88.58    658
88.6     617
88.62    502
88.64    419
88.66    404
88.68    398
88.7     450
88.72    506
88.74    566
88.76    598
88.78    634
88.8     567
88.82    510
88.84    412
88.86    365
88.88    360
88.9     382
88.92    408
88.94    424
88.96    465
88.98    496
89.0     496
89.02    506
89.04    453
89.06    500
89.08    527
89.1     549
89.12    594
89.14    635
89.16    650
89.18    639
89.2     631
89.22    602
89.24    551
89.26    595
89.28    567
89.3     597
89.32    650
89.34    608
89.36    558
89.38    530
89.4     476
89.42    409
89.44    376
89.46    359
89.48    382
89.5     449
89.52    562
89.54    559
89.56    621
89.58    617
89.6     586
89.62    550
89.64    560
89.66    517
89.68    499
89.7     527
89.72    555
89.74    599
89.76    636
89.78    620
89.8     569
89.82    575
89.84    612
89.86    640
89.88    644
89.9     676
89.92    656
89.94    669
89.96    576
89.98    567
90.0     553
