?
5.0      1102
5.02     1102
5.04     1432
5.06     1330
5.08     1385
5.1      1404
5.12     1426
5.14     1434
5.16     1405
5.18     1408
5.2      1409
5.22     1362
5.24     1363
5.26     1344
5.28     1377
5.3      1384
5.32     1409
5.34     1409
5.36     1460
5.38     1499
5.4      1478
5.42     1456
5.44     1448
5.46     1423
5.48     1443
5.5      1401
5.52     1395
5.54     1397
5.56     1462
5.58     1436
5.6      1431
5.62     1441
5.64     1453
5.66     1460
5.68     1459
5.7      1415
5.72     1404
5.74     1422
5.76     1431
5.78     1416
5.8      1393
5.82     1374
5.84     1398
5.86     1442
5.88     1427
5.9      1426
5.92     1449
5.94     1444
5.96     1436
5.98     1432
6.0      1375
6.02     1390
6.04     1379
6.06     1391
6.08     1365
6.1      1369
6.12     1354
6.14     1347
6.16     1357
6.18     1354
6.2      1373
6.22     1418
6.24     1411
6.26     1415
6.28     1444
6.3      1420
6.32     1419
6.34     1438
6.36     1445
6.38     1443
6.4      1443
6.42     1440
6.44     1427
6.46     1432
6.48     1456
6.5      1437
6.52     1438
6.54     1394
6.56     1424
6.58     1396
6.6      1374
6.62     1341
6.64     1353
6.66     1339
6.68     1373
6.7      1364
6.72     1420
6.74     1351
6.76     1398
6.78     1360
6.8      1356
6.82     1319
6.84     1347
6.86     1313
6.88     1364
6.9      1348
6.92     1399
6.94     1341
6.96     1371
6.98     1346
7.0      1335
7.02     1316
7.04     1328
7.06     1326
7.08     1345
7.1      1318
7.12     1337
7.14     1339
7.16     1367
7.18     1322
7.2      1339
7.22     1313
7.24     1305
7.26     1330
7.28     1337
7.3      1297
7.32     1345
7.34     1341
7.36     1350
7.38     1283
7.4      1286
7.42     1290
7.44     1323
7.46     1318
7.48     1322
7.5      1266
7.52     1297
7.54     1255
7.56     1224
7.58     1185
7.6      1177
7.62     1245
7.64     1273
7.66     1269
7.68     1303
7.7      1252
7.72     1267
7.74     1262
7.76     1227
7.78     1210
7.8      1218
7.82     1247
7.84     1264
7.86     1278
7.88     1250
7.9      1230
7.92     1179
7.94     1185
7.96     1187
7.98     1195
8.0      1257
8.02     1271
8.04     1260
8.06     1272
8.08     1198
8.1      1183
8.12     1084
8.14     1117
8.16     1167
8.18     1118
8.2      1198
8.22     1201
8.24     1212
8.26     1234
8.28     1190
8.3      1170
8.32     1134
8.34     1175
8.36     1174
8.38     1131
8.4      1187
8.42     1152
8.44     1171
8.46     1184
8.48     1153
8.5      1133
8.52     1126
8.54     1131
8.56     1177
8.58     1164
8.6      1144
8.62     1132
8.64     1132
8.66     1108
8.68     1054
8.7      1051
8.72     1043
8.74     1049
8.76     1105
8.78     1080
8.8      1100
8.82     1121
8.84     1094
8.86     1057
8.88     1043
8.9      1101
8.92     1106
8.94     1124
8.96     1104
8.98     1086
9.0      1062
9.02     1043
9.04     1027
9.06     980
9.08     949
9.1      1016
9.12     994
9.14     1017
9.16     964
9.18     965
9.2      886
9.22     926
9.24     962
9.26     886
9.28     907
9.3      940
9.32     968
9.34     989
9.36     937
9.38     934
9.4      881
9.42     950
9.44     918
9.46     911
9.48     928
9.5      951
9.52     971
9.54     958
9.56     903
9.58     898
9.6      895
9.62     869
9.64     817
9.66     832
9.68     783
9.7      789
9.72     780
9.74     820
9.76     793
9.78     799
9.8      837
9.82     842
9.84     821
9.86     792
9.88     757
9.9      757
9.92     826
9.94     869
9.96     845
9.98     842
10.0     840
10.02    808
10.04    746
10.06    725
10.08    754
10.1     782
10.12    830
10.14    843
10.16    849
10.18    863
10.2     803
10.22    815
10.24    775
10.26    776
10.28    826
10.3     800
10.32    762
10.34    796
10.36    811
10.38    791
10.4     802
10.42    883
10.44    876
10.46    930
10.48    984
10.5     949
10.52    941
10.54    934
10.56    852
10.58    783
10.6     767
10.62    768
10.64    731
10.66    755
10.68    766
10.7     729
10.72    791
10.74    807
10.76    819
10.78    841
10.8     848
10.82    894
10.84    899
10.86    877
10.88    885
10.9     844
10.92    825
10.94    858
10.96    833
10.98    858
11.0     850
11.02    869
11.04    868
11.06    831
11.08    884
11.1     841
11.12    796
11.14    850
11.16    871
11.18    922
11.2     883
11.22    902
11.24    920
11.26    877
11.28    885
11.3     868
11.32    812
11.34    846
11.36    886
11.38    911
11.4     932
11.42    958
11.44    954
11.46    943
11.48    969
11.5     962
11.52    932
11.54    941
11.56    911
11.58    871
11.6     861
11.62    871
11.64    920
11.66    957
11.68    980
11.7     1000
11.72    1014
11.74    1043
11.76    1035
11.78    1009
11.8     1013
11.82    1037
11.84    1028
11.86    965
11.88    955
11.9     927
11.92    948
11.94    984
11.96    992
11.98    1015
12.0     937
12.02    917
12.04    903
12.06    861
12.08    860
12.1     849
12.12    919
12.14    942
12.16    987
12.18    1047
12.2     1010
12.22    998
12.24    991
12.26    997
12.28    985
12.3     946
12.32    946
12.34    928
12.36    886
12.38    906
12.4     940
12.42    917
12.44    926
12.46    1034
12.48    1055
12.5     1067
12.52    1062
12.54    1026
12.56    966
12.58    972
12.6     997
12.62    959
12.64    951
12.66    1007
12.68    1008
12.7     1009
12.72    978
12.74    943
12.76    978
12.78    988
12.8     991
12.82    1018
12.84    1025
12.86    982
12.88    993
12.9     987
12.92    965
12.94    950
12.96    988
12.98    950
13.0     952
13.02    981
13.04    993
13.06    1003
13.08    1017
13.1     977
13.12    976
13.14    980
13.16    956
13.18    958
13.2     986
13.22    1028
13.24    1085
13.26    1105
13.28    1061
13.3     1018
13.32    1032
13.34    1005
13.36    994
13.38    982
13.4     951
13.42    952
13.44    989
13.46    978
13.48    984
13.5     996
13.52    1014
13.54    1045
13.56    1101
13.58    1131
13.6     1063
13.62    1051
13.64    1042
13.66    1009
13.68    985
13.7     962
13.72    955
13.74    992
13.76    1043
13.78    1062
13.8     1001
13.82    1024
13.84    1003
13.86    1015
13.88    979
13.9     932
13.92    902
13.94    912
13.96    943
13.98    954
14.0     916
14.02    941
14.04    925
14.06    921
14.08    907
14.1     892
14.12    892
14.14    957
14.16    1015
14.18    1064
14.2     1003
14.22    995
14.24    986
14.26    1001
14.28    976
14.3     932
14.32    886
14.34    950
14.36    976
14.38    976
14.4     979
14.42    973
14.44    941
14.46    965
14.48    941
14.5     892
14.52    844
14.54    910
14.56    932
14.58    900
14.6     939
14.62    951
14.64    853
14.66    862
14.68    933
14.7     962
14.72    905
14.74    938
14.76    1022
14.78    1052
14.8     1056
14.82    1038
14.84    1020
14.86    1079
14.88    1187
14.9     1183
14.92    1146
14.94    1187
14.96    1220
14.98    1183
15.0     1110
15.02    984
15.04    884
15.06    829
15.08    852
15.1     860
15.12    893
15.14    861
15.16    878
15.18    926
15.2     945
15.22    856
15.24    783
15.26    831
15.28    861
15.3     860
15.32    850
15.34    805
15.36    837
15.38    849
15.4     802
15.42    757
15.44    806
15.46    808
15.48    744
15.5     793
15.52    863
15.54    873
15.56    880
15.58    902
15.6     912
15.62    885
15.64    885
15.66    786
15.68    814
15.7     897
15.72    921
15.74    886
15.76    884
15.78    979
15.8     1004
15.82    954
15.84    957
15.86    993
15.88    1045
15.9     1039
15.92    1009
15.94    991
15.96    1058
15.98    1183
16.0     1232
16.02    1279
16.04    1387
16.06    1436
16.08    1434
16.1     1448
16.12    1497
16.14    1604
16.16    1680
16.18    1858
16.2     2059
16.22    2231
16.24    2493
16.26    2827
16.28    3263
16.3     3788
16.32    4561
16.34    5523
16.36    6699
16.38    8274
16.4     10366
16.42    13033
16.44    16595
16.46    22494
16.48    31897
16.5     44892
16.52    57839
16.54    65929
16.56    67116
16.58    61528
16.6     50394
16.62    35597
16.64    20014
16.66    7437
16.68    465
16.7     77
16.72    424
16.74    888
16.76    1473
16.78    1652
16.8     1406
16.82    1217
16.84    1262
16.86    1307
16.88    1276
16.9     1134
16.92    1087
16.94    1086
16.96    1131
16.98    1108
17.0     1065
17.02    1033
17.04    1080
17.06    1086
17.08    1080
17.1     1047
17.12    998
17.14    936
17.16    991
17.18    981
17.2     908
17.22    881
17.24    945
17.26    970
17.28    1073
17.3     1123
17.32    1011
17.34    1002
17.36    1090
17.38    1045
17.4     906
17.42    845
17.44    893
17.46    932
17.48    962
17.5     918
17.52    909
17.54    993
17.56    1032
17.58    950
17.6     880
17.62    864
17.64    852
17.66    818
17.68    783
17.7     764
17.72    806
17.74    867
17.76    886
17.78    845
17.8     844
17.82    885
17.84    885
17.86    868
17.88    850
17.9     798
17.92    837
17.94    930
17.96    945
17.98    908
18.0     984
18.02    988
18.04    961
18.06    929
18.08    854
18.1     828
18.12    863
18.14    834
18.16    756
18.18    768
18.2     826
18.22    750
18.24    760
18.26    765
18.28    760
18.3     720
18.32    677
18.34    673
18.36    664
18.38    723
18.4     733
18.42    718
18.44    719
18.46    735
18.48    764
18.5     744
18.52    783
18.54    823
18.56    807
18.58    788
18.6     803
18.62    802
18.64    742
18.66    711
18.68    730
18.7     712
18.72    754
18.74    773
18.76    815
18.78    802
18.8     854
18.82    831
18.84    769
18.86    728
18.88    718
18.9     659
18.92    672
18.94    732
18.96    771
18.98    729
19.0     776
19.02    791
19.04    801
19.06    812
19.08    832
19.1     760
19.12    681
19.14    738
19.16    702
19.18    706
19.2     764
19.22    784
19.24    803
19.26    833
19.28    789
19.3     726
19.32    647
19.34    699
19.36    693
19.38    737
19.4     718
19.42    698
19.44    743
19.46    741
19.48    690
19.5     702
19.52    692
19.54    743
19.56    731
19.58    729
19.6     645
19.62    608
19.64    625
19.66    631
19.68    660
19.7     694
19.72    739
19.74    758
19.76    764
19.78    697
19.8     576
19.82    504
19.84    517
19.86    548
19.88    603
19.9     660
19.92    698
19.94    705
19.96    708
19.98    674
20.0     674
20.02    642
20.04    684
20.06    652
20.08    659
20.1     651
20.12    554
20.14    491
20.16    446
20.18    503
20.2     545
20.22    548
20.24    571
20.26    570
20.28    638
20.3     636
20.32    583
20.34    556
20.36    517
20.38    553
20.4     558
20.42    591
20.44    645
20.46    704
20.48    770
20.5     758
20.52    728
20.54    637
20.56    590
20.58    627
20.6     602
20.62    651
20.64    666
20.66    701
20.68    705
20.7     692
20.72    628
20.74    581
20.76    603
20.78    682
20.8     728
20.82    719
20.84    645
20.86    636
20.88    616
20.9     589
20.92    557
20.94    544
20.96    532
20.98    579
21.0     641
21.02    591
21.04    579
21.06    606
21.08    669
21.1     643
21.12    612
21.14    599
21.16    578
21.18    573
21.2     536
21.22    470
21.24    434
21.26    459
21.28    479
21.3     461
21.32    505
21.34    572
21.36    619
21.38    632
21.4     597
21.42    595
21.44    577
21.46    554
21.48    503
21.5     513
21.52    550
21.54    588
21.56    603
21.58    549
21.6     514
21.62    540
21.64    570
21.66    520
21.68    468
21.7     424
21.72    456
21.74    472
21.76    411
21.78    285
21.8     281
21.82    384
21.84    494
21.86    495
21.88    458
21.9     403
21.92    433
21.94    423
21.96    409
21.98    383
22.0     450
22.02    552
22.04    596
22.06    569
22.08    510
22.1     484
22.12    488
22.14    489
22.16    507
22.18    485
22.2     506
22.22    483
22.24    515
22.26    521
22.28    546
22.3     533
22.32    563
22.34    517
22.36    498
22.38    469
22.4     494
22.42    455
22.44    501
22.46    561
22.48    543
22.5     510
22.52    480
22.54    421
22.56    451
22.58    483
22.6     563
22.62    624
22.64    670
22.66    757
22.68    735
22.7     671
22.72    555
22.74    488
22.76    478
22.78    423
22.8     399
22.82    389
22.84    413
22.86    460
22.88    474
22.9     438
22.92    422
22.94    440
22.96    455
22.98    483
23.0     455
23.02    508
23.04    521
23.06    514
23.08    473
23.1     445
23.12    445
23.14    386
23.16    333
23.18    342
23.2     337
23.22    454
23.24    499
23.26    529
23.28    490
23.3     504
23.32    526
23.34    494
23.36    456
23.38    416
23.4     414
23.42    432
23.44    444
23.46    383
23.48    331
23.5     323
23.52    424
23.54    504
23.56    554
23.58    526
23.6     521
23.62    484
23.64    459
23.66    385
23.68    325
23.7     321
23.72    383
23.74    389
23.76    407
23.78    399
23.8     445
23.82    453
23.84    453
23.86    468
23.88    391
23.9     384
23.92    306
23.94    290
23.96    250
23.98    273
24.0     256
24.02    309
24.04    368
24.06    487
24.08    478
24.1     451
24.12    387
24.14    360
24.16    306
24.18    295
24.2     264
24.22    342
24.24    363
24.26    452
24.28    411
24.3     361
24.32    334
24.34    314
24.36    348
24.38    404
24.4     421
24.42    430
24.44    377
24.46    380
24.48    315
24.5     338
24.52    334
24.54    397
24.56    441
24.58    511
24.6     450
24.62    342
24.64    270
24.66    257
24.68    283
24.7     335
24.72    395
24.74    483
24.76    533
24.78    541
24.8     466
24.82    329
24.84    280
24.86    246
24.88    264
24.9     269
24.92    321
24.94    342
24.96    373
24.98    366
25.0     384
25.02    356
25.04    350
25.06    302
25.08    306
25.1     301
25.12    335
25.14    307
25.16    322
25.18    343
25.2     395
25.22    438
25.24    471
25.26    451
25.28    434
25.3     423
25.32    449
25.34    408
25.36    378
25.38    303
25.4     238
25.42    245
25.44    282
25.46    269
25.48    271
25.5     293
25.52    319
25.54    340
25.56    367
25.58    367
25.6     362
25.62    443
25.64    478
25.66    471
25.68    409
25.7     373
25.72    319
25.74    293
25.76    269
25.78    237
25.8     220
25.82    257
25.84    292
25.86    263
25.88    253
25.9     263
25.92    237
25.94    236
25.96    252
25.98    263
26.0     318
26.02    338
26.04    361
26.06    365
26.08    347
26.1     326
26.12    278
26.14    286
26.16    331
26.18    327
26.2     354
26.22    309
26.24    281
26.26    220
26.28    185
26.3     237
26.32    311
26.34    391
26.36    431
26.38    427
26.4     443
26.42    427
26.44    339
26.46    258
26.48    283
26.5     339
26.52    407
26.54    398
26.56    403
26.58    397
26.6     382
26.62    313
26.64    173
26.66    128
26.68    168
26.7     206
26.72    292
26.74    400
26.76    575
26.78    618
26.8     580
26.82    449
26.84    310
26.86    271
26.88    266
26.9     229
26.92    245
26.94    278
26.96    348
26.98    359
27.0     334
27.02    260
27.04    210
27.06    219
27.08    225
27.1     297
27.12    369
27.14    398
27.16    381
27.18    403
27.2     367
27.22    299
27.24    211
27.26    177
27.28    210
27.3     301
27.32    314
27.34    281
27.36    250
27.38    295
27.4     315
27.42    332
27.44    315
27.46    347
27.48    355
27.5     374
27.52    358
27.54    372
27.56    360
27.58    355
27.6     374
27.62    343
27.64    341
27.66    278
27.68    273
27.7     293
27.72    269
27.74    243
27.76    171
27.78    131
27.8     160
27.82    180
27.84    272
27.86    268
27.88    332
27.9     343
27.92    318
27.94    315
27.96    252
27.98    168
28.0     204
28.02    210
28.04    235
28.06    294
28.08    369
28.1     408
28.12    426
28.14    436
28.16    389
28.18    363
28.2     400
28.22    311
28.24    293
28.26    327
28.28    376
28.3     379
28.32    351
28.34    329
28.36    338
28.38    390
28.4     395
28.42    314
28.44    232
28.46    198
28.48    266
28.5     310
28.52    340
28.54    327
28.56    343
28.58    350
28.6     371
28.62    288
28.64    219
28.66    198
28.68    228
28.7     241
28.72    279
28.74    259
28.76    276
28.78    288
28.8     335
28.82    312
28.84    355
28.86    316
28.88    268
28.9     236
28.92    298
28.94    296
28.96    312
28.98    329
29.0     313
29.02    300
29.04    286
29.06    261
29.08    233
29.1     206
29.12    252
29.14    216
29.16    255
29.18    270
29.2     256
29.22    308
29.24    329
29.26    392
29.28    369
29.3     337
29.32    355
29.34    317
29.36    304
29.38    289
29.4     297
29.42    365
29.44    269
29.46    225
29.48    180
29.5     162
29.52    209
29.54    222
29.56    200
29.58    214
29.6     243
29.62    218
29.64    164
29.66    266
29.68    353
29.7     413
29.72    458
29.74    388
29.76    257
29.78    188
29.8     141
29.82    130
29.84    239
29.86    289
29.88    316
29.9     326
29.92    283
29.94    256
29.96    224
29.98    256
30.0     313
30.02    328
30.04    353
30.06    214
30.08    209
30.1     223
30.12    214
30.14    296
30.16    325
30.18    352
30.2     385
30.22    298
30.24    241
30.26    141
30.28    164
30.3     182
30.32    203
30.34    241
30.36    235
30.38    269
30.4     340
30.42    324
30.44    353
30.46    334
30.48    340
30.5     329
30.52    310
30.54    283
30.56    234
30.58    173
30.6     124
30.62    96
30.64    147
30.66    133
30.68    238
30.7     259
30.72    246
30.74    258
30.76    178
30.78    89
30.8     82
30.82    110
30.84    189
30.86    238
30.88    319
30.9     307
30.92    243
30.94    258
30.96    226
30.98    224
31.0     273
31.02    258
31.04    291
31.06    361
31.08    358
31.1     300
31.12    239
31.14    198
31.16    184
31.18    190
31.2     188
31.22    219
31.24    242
31.26    310
31.28    308
31.3     192
31.32    197
31.34    94
31.36    130
31.38    197
31.4     241
31.42    381
31.44    380
31.46    378
31.48    351
31.5     249
31.52    280
31.54    240
31.56    234
31.58    284
31.6     307
31.62    386
31.64    391
31.66    349
31.68    326
31.7     245
31.72    227
31.74    221
31.76    171
31.78    203
31.8     215
31.82    226
31.84    232
31.86    244
31.88    220
31.9     174
31.92    231
31.94    201
31.96    244
31.98    266
32.0     244
32.02    242
32.04    192
32.06    195
32.08    102
32.1     44
32.12    76
32.14    19
32.16    133
32.18    253
32.2     295
32.22    394
32.24    340
32.26    293
32.28    153
32.3     48
32.32    47
32.34    63
32.36    193
32.38    398
32.4     442
32.42    521
32.44    453
32.46    339
32.48    171
32.5     125
32.52    74
32.54    90
32.56    196
32.58    283
32.6     310
32.62    339
32.64    314
32.66    291
32.68    279
32.7     345
32.72    355
32.74    368
32.76    441
32.78    463
32.8     463
32.82    505
32.84    453
32.86    464
32.88    478
32.9     482
32.92    487
32.94    388
32.96    401
32.98    365
33.0     344
33.02    364
33.04    301
33.06    348
33.08    380
33.1     429
33.12    444
33.14    359
33.16    377
33.18    321
33.2     325
33.22    287
33.24    325
33.26    448
33.28    540
33.3     684
33.32    831
33.34    981
33.36    1171
33.38    1521
33.4     2297
33.42    3667
33.44    5901
33.46    8736
33.48    11893
33.5     14913
33.52    16795
33.54    16893
33.56    15123
33.58    12165
33.6     8630
33.62    5174
33.64    2533
33.66    829
33.68    212
33.7     364
33.72    560
33.74    562
33.76    440
33.78    352
33.8     301
33.82    301
33.84    355
33.86    387
33.88    428
33.9     452
33.92    459
33.94    420
33.96    374
33.98    341
34.0     319
34.02    387
34.04    361
34.06    386
34.08    428
34.1     381
34.12    399
34.14    359
34.16    320
34.18    336
34.2     310
34.22    291
34.24    271
34.26    352
34.28    428
34.3     430
34.32    523
34.34    567
34.36    520
34.38    517
34.4     486
34.42    395
34.44    367
34.46    374
34.48    382
34.5     403
34.52    466
34.54    451
34.56    379
34.58    351
34.6     343
34.62    298
34.64    312
34.66    242
34.68    237
34.7     286
34.72    315
34.74    349
34.76    406
34.78    413
34.8     432
34.82    418
34.84    439
34.86    356
34.88    351
34.9     425
34.92    491
34.94    668
34.96    872
34.98    1107
35.0     1554
35.02    2666
35.04    4631
35.06    7109
35.08    9749
35.1     12020
35.12    13465
35.14    13717
35.16    12524
35.18    10231
35.2     7405
35.22    4836
35.24    2849
35.26    1479
35.28    754
35.3     467
35.32    478
35.34    537
35.36    527
35.38    604
35.4     655
35.42    691
35.44    646
35.46    610
35.48    522
35.5     449
35.52    402
35.54    351
35.56    361
35.58    397
35.6     455
35.62    499
35.64    493
35.66    498
35.68    430
35.7     390
35.72    415
35.74    451
35.76    464
35.78    499
35.8     531
35.82    494
35.84    474
35.86    436
35.88    358
35.9     326
35.92    396
35.94    417
35.96    409
35.98    465
36.0     477
36.02    456
36.04    471
36.06    423
36.08    389
36.1     399
36.12    434
36.14    402
36.16    452
36.18    550
36.2     590
36.22    654
36.24    703
36.26    770
36.28    904
36.3     1108
36.32    1299
36.34    1707
36.36    2572
36.38    4929
36.4     9365
36.42    15486
36.44    22189
36.46    27992
36.48    31439
36.5     31601
36.52    28420
36.54    22640
36.56    15591
36.58    9187
36.6     4583
36.62    1840
36.64    760
36.66    490
36.68    549
36.7     556
36.72    631
36.74    671
36.76    822
36.78    817
36.8     788
36.82    703
36.84    650
36.86    576
36.88    540
36.9     470
36.92    440
36.94    434
36.96    492
36.98    463
37.0     513
37.02    650
37.04    808
37.06    1050
37.08    1301
37.1     1458
37.12    1529
37.14    1548
37.16    1487
37.18    1263
37.2     1014
37.22    820
37.24    628
37.26    511
37.28    526
37.3     599
37.32    712
37.34    866
37.36    998
37.38    974
37.4     887
37.42    771
37.44    621
37.46    455
37.48    379
37.5     365
37.52    384
37.54    399
37.56    458
37.58    457
37.6     401
37.62    346
37.64    370
37.66    371
37.68    445
37.7     438
37.72    443
37.74    386
37.76    360
37.78    268
37.8     223
37.82    222
37.84    301
37.86    315
37.88    414
37.9     410
37.92    384
37.94    312
37.96    245
37.98    185
38.0     235
38.02    305
38.04    386
38.06    408
38.08    454
38.1     419
38.12    386
38.14    371
38.16    300
38.18    261
38.2     323
38.22    355
38.24    348
38.26    383
38.28    401
38.3     363
38.32    323
38.34    361
38.36    296
38.38    242
38.4     266
38.42    254
38.44    243
38.46    274
38.48    261
38.5     282
38.52    250
38.54    342
38.56    283
38.58    279
38.6     265
38.62    279
38.64    287
38.66    339
38.68    318
38.7     301
38.72    269
38.74    270
38.76    239
38.78    234
38.8     241
38.82    285
38.84    346
38.86    396
38.88    342
38.9     276
38.92    328
38.94    288
38.96    243
38.98    214
39.0     272
39.02    241
39.04    262
39.06    284
39.08    322
39.1     301
39.12    368
39.14    370
39.16    352
39.18    318
39.2     270
39.22    215
39.24    226
39.26    192
39.28    239
39.3     215
39.32    261
39.34    323
39.36    326
39.38    288
39.4     306
39.42    299
39.44    240
39.46    164
39.48    174
39.5     169
39.52    223
39.54    308
39.56    384
39.58    439
39.6     510
39.62    522
39.64    416
39.66    392
39.68    350
39.7     277
39.72    269
39.74    292
39.76    307
39.78    336
39.8     398
39.82    415
39.84    379
39.86    388
39.88    366
39.9     272
39.92    258
39.94    240
39.96    256
39.98    267
40.0     360
40.02    454
40.04    623
40.06    670
40.08    761
40.1     765
40.12    761
40.14    643
40.16    622
40.18    498
40.2     513
40.22    541
40.24    651
40.26    691
40.28    761
40.3     815
40.32    776
40.34    646
40.36    574
40.38    470
40.4     417
40.42    383
40.44    419
40.46    497
40.48    572
40.5     730
40.52    766
40.54    749
40.56    712
40.58    630
40.6     567
40.62    538
40.64    472
40.66    481
40.68    513
40.7     595
40.72    628
40.74    688
40.76    657
40.78    640
40.8     700
40.82    754
40.84    725
40.86    719
40.88    737
40.9     719
40.92    714
40.94    749
40.96    756
40.98    804
41.0     802
41.02    853
41.04    838
41.06    837
41.08    833
41.1     794
41.12    779
41.14    788
41.16    857
41.18    872
41.2     955
41.22    1112
41.24    1274
41.26    1514
41.28    1817
41.3     2168
41.32    2513
41.34    2900
41.36    3339
41.38    3769
41.4     4430
41.42    6004
41.44    11391
41.46    26280
41.48    52357
41.5     83376
41.52    109307
41.54    123236
41.56    123093
41.58    109647
41.6     85470
41.62    55158
41.64    26617
41.66    8436
41.68    2119
41.7     2101
41.72    2569
41.74    1992
41.76    1290
41.78    988
41.8     1083
41.82    1226
41.84    1344
41.86    1487
41.88    1511
41.9     1371
41.92    1157
41.94    1021
41.96    897
41.98    802
42.0     778
42.02    862
42.04    890
42.06    913
42.08    908
42.1     928
42.12    872
42.14    814
42.16    757
42.18    689
42.2     628
42.22    633
42.24    630
42.26    649
42.28    697
42.3     738
42.32    790
42.34    868
42.36    881
42.38    858
42.4     849
42.42    732
42.44    642
42.46    556
42.48    498
42.5     397
42.52    400
42.54    496
42.56    539
42.58    679
42.6     762
42.62    710
42.64    708
42.66    659
42.68    581
42.7     428
42.72    383
42.74    477
42.76    522
42.78    654
42.8     725
42.82    727
42.84    742
42.86    671
42.88    561
42.9     463
42.92    421
42.94    421
42.96    439
42.98    496
43.0     551
43.02    642
43.04    865
43.06    1114
43.08    1459
43.1     1909
43.12    2303
43.14    2450
43.16    2476
43.18    2304
43.2     2038
43.22    1678
43.24    1343
43.26    1074
43.28    879
43.3     778
43.32    664
43.34    471
43.36    384
43.38    307
43.4     318
43.42    321
43.44    409
43.46    481
43.48    484
43.5     466
43.52    457
43.54    392
43.56    356
43.58    352
43.6     370
43.62    408
43.64    462
43.66    495
43.68    507
43.7     514
43.72    532
43.74    448
43.76    393
43.78    412
43.8     326
43.82    299
43.84    253
43.86    279
43.88    324
43.9     378
43.92    453
43.94    507
43.96    591
43.98    640
44.0     569
44.02    487
44.04    351
44.06    251
44.08    212
44.1     199
44.12    278
44.14    388
44.16    517
44.18    557
44.2     530
44.22    450
44.24    401
44.26    351
44.28    336
44.3     378
44.32    428
44.34    457
44.36    477
44.38    461
44.4     439
44.42    424
44.44    432
44.46    429
44.48    450
44.5     496
44.52    486
44.54    458
44.56    411
44.58    394
44.6     342
44.62    338
44.64    341
44.66    352
44.68    401
44.7     457
44.72    504
44.74    531
44.76    553
44.78    608
44.8     570
44.82    522
44.84    454
44.86    391
44.88    343
44.9     279
44.92    322
44.94    530
44.96    1044
44.98    1779
45.0     2351
45.02    2738
45.04    2814
45.06    2627
45.08    2211
45.1     1607
45.12    1024
45.14    523
45.16    402
45.18    397
45.2     358
45.22    358
45.24    344
45.26    391
45.28    435
45.3     467
45.32    479
45.34    447
45.36    439
45.38    364
45.4     296
45.42    322
45.44    392
45.46    397
45.48    407
45.5     386
45.52    368
45.54    338
45.56    223
45.58    197
45.6     174
45.62    215
45.64    263
45.66    302
45.68    398
45.7     435
45.72    507
45.74    515
45.76    438
45.78    392
45.8     317
45.82    233
45.84    192
45.86    213
45.88    332
45.9     417
45.92    503
45.94    556
45.96    587
45.98    548
46.0     408
46.02    320
46.04    267
46.06    275
46.08    281
46.1     283
46.12    353
46.14    405
46.16    442
46.18    421
46.2     375
46.22    368
46.24    358
46.26    334
46.28    278
46.3     306
46.32    275
46.34    287
46.36    271
46.38    317
46.4     364
46.42    372
46.44    424
46.46    438
46.48    392
46.5     391
46.52    322
46.54    349
46.56    330
46.58    355
46.6     359
46.62    356
46.64    356
46.66    356
46.68    335
46.7     338
46.72    303
46.74    331
46.76    350
46.78    305
46.8     297
46.82    264
46.84    278
46.86    316
46.88    336
46.9     396
46.92    427
46.94    444
46.96    402
46.98    378
47.0     370
47.02    323
47.04    290
47.06    299
47.08    352
47.1     391
47.12    394
47.14    347
47.16    330
47.18    274
47.2     172
47.22    135
47.24    115
47.26    151
47.28    224
47.3     281
47.32    353
47.34    393
47.36    448
47.38    371
47.4     413
47.42    388
47.44    331
47.46    269
47.48    305
47.5     377
47.52    413
47.54    441
47.56    491
47.58    510
47.6     550
47.62    428
47.64    347
47.66    316
47.68    288
47.7     281
47.72    310
47.74    388
47.76    354
47.78    395
47.8     387
47.82    444
47.84    481
47.86    468
47.88    425
47.9     390
47.92    437
47.94    456
47.96    309
47.98    296
48.0     249
48.02    303
48.04    278
48.06    252
48.08    278
48.1     296
48.12    384
48.14    443
48.16    404
48.18    410
48.2     419
48.22    448
48.24    437
48.26    379
48.28    393
48.3     398
48.32    425
48.34    446
48.36    387
48.38    397
48.4     390
48.42    331
48.44    269
48.46    194
48.48    230
48.5     285
48.52    337
48.54    376
48.56    410
48.58    452
48.6     475
48.62    397
48.64    364
48.66    294
48.68    256
48.7     281
48.72    239
48.74    287
48.76    335
48.78    445
48.8     518
48.82    499
48.84    480
48.86    422
48.88    331
48.9     304
48.92    262
48.94    317
48.96    325
48.98    373
49.0     366
49.02    370
49.04    331
49.06    279
49.08    262
49.1     350
49.12    388
49.14    429
49.16    414
49.18    408
49.2     423
49.22    378
49.24    324
49.26    256
49.28    294
49.3     380
49.32    359
49.34    364
49.36    367
49.38    368
49.4     340
49.42    227
49.44    157
49.46    176
49.48    214
49.5     287
49.52    326
49.54    418
49.56    520
49.58    481
49.6     420
49.62    329
49.64    257
49.66    267
49.68    235
49.7     285
49.72    362
49.74    428
49.76    484
49.78    476
49.8     487
49.82    446
49.84    378
49.86    388
49.88    379
49.9     387
49.92    372
49.94    311
49.96    321
49.98    305
50.0     253
50.02    234
50.04    257
50.06    351
50.08    397
50.1     391
50.12    406
50.14    415
50.16    439
50.18    376
50.2     268
50.22    239
50.24    295
50.26    302
50.28    346
50.3     359
50.32    429
50.34    520
50.36    531
50.38    474
50.4     399
50.42    310
50.44    318
50.46    271
50.48    281
50.5     271
50.52    331
50.54    392
50.56    447
50.58    433
50.6     464
50.62    386
50.64    332
50.66    236
50.68    193
50.7     144
50.72    167
50.74    227
50.76    311
50.78    313
50.8     403
50.82    366
50.84    331
50.86    256
50.88    276
50.9     241
50.92    240
50.94    275
50.96    290
50.98    297
51.0     389
51.02    371
51.04    389
51.06    344
51.08    337
51.1     238
51.12    219
51.14    165
51.16    142
51.18    186
51.2     261
51.22    291
51.24    382
51.26    401
51.28    408
51.3     379
51.32    412
51.34    351
51.36    381
51.38    393
51.4     457
51.42    497
51.44    507
51.46    400
51.48    400
51.5     341
51.52    302
51.54    255
51.56    212
51.58    231
51.6     382
51.62    396
51.64    450
51.66    430
51.68    466
51.7     408
51.72    333
51.74    258
51.76    228
51.78    300
51.8     386
51.82    439
51.84    564
51.86    649
51.88    642
51.9     544
51.92    371
51.94    282
51.96    270
51.98    233
52.0     196
52.02    177
52.04    238
52.06    402
52.08    416
52.1     388
52.12    384
52.14    403
52.16    538
52.18    586
52.2     512
52.22    500
52.24    547
52.26    628
52.28    591
52.3     546
52.32    453
52.34    381
52.36    396
52.38    325
52.4     228
52.42    279
52.44    286
52.46    356
52.48    433
52.5     451
52.52    458
52.54    485
52.56    462
52.58    485
52.6     454
52.62    452
52.64    364
52.66    338
52.68    364
52.7     378
52.72    373
52.74    393
52.76    360
52.78    415
52.8     422
52.82    378
52.84    377
52.86    372
52.88    412
52.9     510
52.92    524
52.94    487
52.96    480
52.98    514
53.0     518
53.02    467
53.04    446
53.06    365
53.08    421
53.1     497
53.12    547
53.14    477
53.16    529
53.18    623
53.2     731
53.22    755
53.24    754
53.26    730
53.28    797
53.3     791
53.32    825
53.34    1031
53.36    2632
53.38    5793
53.4     9409
53.42    12320
53.44    13909
53.46    13952
53.48    12505
53.5     9728
53.52    6230
53.54    2856
53.56    1015
53.58    583
53.6     684
53.62    781
53.64    812
53.66    783
53.68    735
53.7     721
53.72    657
53.74    587
53.76    507
53.78    407
53.8     335
53.82    294
53.84    291
53.86    267
53.88    257
53.9     271
53.92    295
53.94    419
53.96    464
53.98    467
54.0     471
54.02    521
54.04    526
54.06    503
54.08    335
54.1     277
54.12    257
54.14    293
54.16    309
54.18    291
54.2     364
54.22    451
54.24    503
54.26    533
54.28    495
54.3     512
54.32    453
54.34    423
54.36    354
54.38    306
54.4     306
54.42    250
54.44    246
54.46    320
54.48    409
54.5     457
54.52    510
54.54    546
54.56    556
54.58    579
54.6     524
54.62    411
54.64    303
54.66    166
54.68    68
54.7     15
54.72    63
54.74    149
54.76    250
54.78    356
54.8     418
54.82    517
54.84    557
54.86    523
54.88    437
54.9     395
54.92    366
54.94    344
54.96    244
54.98    205
55.0     165
55.02    261
55.04    332
55.06    366
55.08    346
55.1     363
55.12    357
55.14    370
55.16    272
55.18    276
55.2     257
55.22    317
55.24    382
55.26    398
55.28    414
55.3     415
55.32    454
55.34    398
55.36    316
55.38    299
55.4     321
55.42    371
55.44    408
55.46    385
55.48    412
55.5     510
55.52    561
55.54    557
55.56    563
55.58    592
55.6     617
55.62    627
55.64    577
55.66    493
55.68    453
55.7     456
55.72    404
55.74    351
55.76    241
55.78    248
55.8     252
55.82    259
55.84    251
55.86    263
55.88    310
55.9     385
55.92    353
55.94    298
55.96    245
55.98    314
56.0     325
56.02    329
56.04    339
56.06    327
56.08    367
56.1     416
56.12    386
56.14    387
56.16    439
56.18    474
56.2     443
56.22    472
56.24    434
56.26    401
56.28    383
56.3     353
56.32    324
56.34    300
56.36    281
56.38    237
56.4     189
56.42    210
56.44    241
56.46    288
56.48    331
56.5     375
56.52    413
56.54    432
56.56    438
56.58    467
56.6     438
56.62    409
56.64    389
56.66    349
56.68    364
56.7     316
56.72    327
56.74    334
56.76    369
56.78    377
56.8     371
56.82    355
56.84    370
56.86    354
56.88    395
56.9     378
56.92    427
56.94    460
56.96    468
56.98    505
57.0     499
57.02    433
57.04    405
57.06    357
57.08    383
57.1     364
57.12    362
57.14    396
57.16    466
57.18    553
57.2     511
57.22    464
57.24    410
57.26    384
57.28    392
57.3     332
57.32    304
57.34    332
57.36    442
57.38    493
57.4     557
57.42    600
57.44    643
57.46    660
57.48    625
57.5     540
57.52    483
57.54    398
57.56    391
57.58    370
57.6     331
57.62    288
57.64    339
57.66    358
57.68    377
57.7     456
57.72    470
57.74    467
57.76    550
57.78    598
57.8     532
57.82    518
57.84    556
57.86    563
57.88    557
57.9     566
57.92    539
57.94    542
57.96    671
57.98    802
58.0     830
58.02    929
58.04    1040
58.06    1122
58.08    1178
58.1     1195
58.12    1241
58.14    1964
58.16    4525
58.18    9766
58.2     17073
58.22    24398
58.24    29677
58.26    31819
58.28    30496
58.3     25861
58.32    18836
58.34    11262
58.36    5214
58.38    2000
58.4     1087
58.42    1056
58.44    1068
58.46    1078
58.48    1141
58.5     1107
58.52    1051
58.54    951
58.56    861
58.58    743
58.6     648
58.62    577
58.64    491
58.66    503
58.68    580
58.7     563
58.72    576
58.74    574
58.76    582
58.78    563
58.8     576
58.82    584
58.84    568
58.86    570
58.88    584
58.9     496
58.92    497
58.94    466
58.96    425
58.98    402
59.0     387
59.02    380
59.04    305
59.06    333
59.08    353
59.1     344
59.12    414
59.14    485
59.16    491
59.18    504
59.2     579
59.22    545
59.24    463
59.26    449
59.28    329
59.3     241
59.32    197
59.34    210
59.36    198
59.38    294
59.4     418
59.42    469
59.44    547
59.46    522
59.48    504
59.5     485
59.52    436
59.54    329
59.56    236
59.58    198
59.6     132
59.62    173
59.64    176
59.66    176
59.68    252
59.7     355
59.72    454
59.74    459
59.76    511
59.78    537
59.8     553
59.82    553
59.84    542
59.86    530
59.88    513
59.9     504
59.92    471
59.94    377
59.96    343
59.98    308
60.0     309
60.02    264
60.04    283
60.06    291
60.08    319
60.1     380
60.12    399
60.14    426
60.16    450
60.18    495
60.2     557
60.22    531
60.24    534
60.26    497
60.28    458
60.3     440
60.32    370
60.34    359
60.36    321
60.38    318
60.4     314
60.42    329
60.44    401
60.46    373
60.48    388
60.5     348
60.52    339
60.54    350
60.56    336
60.58    358
60.6     345
60.62    376
60.64    410
60.66    453
60.68    508
60.7     505
60.72    540
60.74    532
60.76    532
60.78    516
60.8     439
60.82    407
60.84    341
60.86    313
60.88    272
60.9     297
60.92    291
60.94    300
60.96    389
60.98    409
61.0     489
61.02    583
61.04    590
61.06    621
61.08    631
61.1     657
61.12    564
61.14    448
61.16    395
61.18    339
61.2     343
61.22    335
61.24    320
61.26    324
61.28    311
61.3     444
61.32    441
61.34    404
61.36    422
61.38    466
61.4     497
61.42    480
61.44    475
61.46    429
61.48    398
61.5     518
61.52    534
61.54    590
61.56    582
61.58    666
61.6     650
61.62    651
61.64    669
61.66    629
61.68    528
61.7     473
61.72    377
61.74    346
61.76    320
61.78    391
61.8     389
61.82    545
61.84    687
61.86    835
61.88    920
61.9     983
61.92    997
61.94    955
61.96    936
61.98    958
62.0     1274
62.02    2389
62.04    4464
62.06    7350
62.08    10565
62.1     13681
62.12    16345
62.14    18072
62.16    18757
62.18    18468
62.2     17430
62.22    16030
62.24    14371
62.26    12401
62.28    10175
62.3     7910
62.32    5818
62.34    3991
62.36    2595
62.38    1767
62.4     1325
62.42    1098
62.44    948
62.46    868
62.48    814
62.5     780
62.52    725
62.54    702
62.56    688
62.58    746
62.6     888
62.62    1014
62.64    1200
62.66    1351
62.68    1469
62.7     1510
62.72    1435
62.74    1280
62.76    1062
62.78    883
62.8     765
62.82    655
62.84    581
62.86    549
62.88    548
62.9     555
62.92    553
62.94    566
62.96    587
62.98    570
63.0     582
63.02    601
63.04    589
63.06    607
63.08    624
63.1     531
63.12    428
63.14    401
63.16    392
63.18    367
63.2     347
63.22    370
63.24    359
63.26    371
63.28    424
63.3     408
63.32    385
63.34    347
63.36    367
63.38    441
63.4     458
63.42    492
63.44    473
63.46    486
63.48    476
63.5     481
63.52    455
63.54    380
63.56    359
63.58    391
63.6     410
63.62    379
63.64    384
63.66    376
63.68    361
63.7     383
63.72    428
63.74    458
63.76    467
63.78    508
63.8     545
63.82    528
63.84    530
63.86    494
63.88    487
63.9     444
63.92    403
63.94    383
63.96    329
63.98    318
64.0     354
64.02    351
64.04    389
64.06    376
64.08    376
64.1     396
64.12    397
64.14    403
64.16    374
64.18    357
64.2     382
64.22    339
64.24    395
64.26    373
64.28    347
64.3     383
64.32    400
64.34    382
64.36    359
64.38    393
64.4     441
64.42    444
64.44    488
64.46    566
64.48    590
64.5     603
64.52    608
64.54    544
64.56    521
64.58    523
64.6     495
64.62    505
64.64    440
64.66    512
64.68    720
64.7     1119
64.72    1860
64.74    2698
64.76    3679
64.78    4596
64.8     5315
64.82    5875
64.84    6028
64.86    5847
64.88    5468
64.9     4878
64.92    4238
64.94    3472
64.96    2766
64.98    2045
65.0     1449
65.02    1043
65.04    760
65.06    607
65.08    557
65.1     507
65.12    486
65.14    461
65.16    420
65.18    424
65.2     440
65.22    432
65.24    475
65.26    526
65.28    573
65.3     633
65.32    626
65.34    600
65.36    526
65.38    496
65.4     453
65.42    401
65.44    376
65.46    328
65.48    322
65.5     325
65.52    281
65.54    263
65.56    221
65.58    254
65.6     314
65.62    316
65.64    388
65.66    443
65.68    474
65.7     488
65.72    496
65.74    494
65.76    429
65.78    412
65.8     379
65.82    320
65.84    300
65.86    275
65.88    300
65.9     279
65.92    336
65.94    428
65.96    464
65.98    464
66.0     480
66.02    522
66.04    485
66.06    424
66.08    410
66.1     344
66.12    376
66.14    386
66.16    363
66.18    301
66.2     269
66.22    287
66.24    273
66.26    336
66.28    463
66.3     514
66.32    567
66.34    618
66.36    606
66.38    581
66.4     526
66.42    523
66.44    506
66.46    511
66.48    486
66.5     425
66.52    378
66.54    402
66.56    334
66.58    348
66.6     366
66.62    355
66.64    356
66.66    341
66.68    315
66.7     316
66.72    294
66.74    351
66.76    376
66.78    441
66.8     422
66.82    401
66.84    394
66.86    410
66.88    397
66.9     373
66.92    351
66.94    347
66.96    359
66.98    385
67.0     362
67.02    373
67.04    382
67.06    390
67.08    371
67.1     367
67.12    356
67.14    361
67.16    372
67.18    414
67.2     417
67.22    459
67.24    458
67.26    467
67.28    469
67.3     433
67.32    397
67.34    345
67.36    262
67.38    296
67.4     323
67.42    318
67.44    304
67.46    374
67.48    412
67.5     398
67.52    466
67.54    419
67.56    421
67.58    490
67.6     505
67.62    417
67.64    398
67.66    388
67.68    354
67.7     337
67.72    353
67.74    297
67.76    301
67.78    343
67.8     397
67.82    461
67.84    505
67.86    542
67.88    511
67.9     488
67.92    434
67.94    448
67.96    406
67.98    400
68.0     436
68.02    413
68.04    445
68.06    483
68.08    483
68.1     460
68.12    439
68.14    438
68.16    424
68.18    427
68.2     435
68.22    393
68.24    460
68.26    426
68.28    367
68.3     322
68.32    308
68.34    337
68.36    375
68.38    386
68.4     423
68.42    517
68.44    522
68.46    456
68.48    424
68.5     433
68.52    409
68.54    460
68.56    456
68.58    432
68.6     435
68.62    457
68.64    468
68.66    467
68.68    471
68.7     489
68.72    485
68.74    539
68.76    594
68.78    645
68.8     836
68.82    1332
68.84    2106
68.86    3126
68.88    4394
68.9     5778
68.92    6899
68.94    7556
68.96    7518
68.98    6769
69.0     5588
69.02    4262
69.04    2944
69.06    1891
69.08    1158
69.1     829
69.12    647
69.14    658
69.16    590
69.18    492
69.2     441
69.22    466
69.24    509
69.26    507
69.28    482
69.3     498
69.32    478
69.34    498
69.36    503
69.38    524
69.4     542
69.42    493
69.44    406
69.46    359
69.48    377
69.5     371
69.52    388
69.54    389
69.56    440
69.58    493
69.6     503
69.62    454
69.64    444
69.66    449
69.68    428
69.7     353
69.72    331
69.74    289
69.76    311
69.78    305
69.8     314
69.82    388
69.84    431
69.86    419
69.88    380
69.9     351
69.92    368
69.94    365
69.96    332
69.98    278
70.0     286
70.02    284
70.04    307
70.06    387
70.08    472
70.1     536
70.12    509
70.14    480
70.16    459
70.18    467
70.2     426
70.22    399
70.24    425
70.26    437
70.28    427
70.3     405
70.32    479
70.34    657
70.36    904
70.38    1148
70.4     1430
70.42    1727
70.44    1969
70.46    2157
70.48    2352
70.5     2564
70.52    2755
70.54    2861
70.56    2984
70.58    2993
70.6     2873
70.62    2522
70.64    2067
70.66    1634
70.68    1183
70.7     798
70.72    559
70.74    441
70.76    474
70.78    525
70.8     518
70.82    476
70.84    420
70.86    446
70.88    428
70.9     388
70.92    445
70.94    435
70.96    461
70.98    545
71.0     485
71.02    517
71.04    478
71.06    485
71.08    495
71.1     426
71.12    434
71.14    408
71.16    393
71.18    391
71.2     371
71.22    417
71.24    393
71.26    452
71.28    471
71.3     526
71.32    581
71.34    531
71.36    510
71.38    513
71.4     497
71.42    412
71.44    375
71.46    368
71.48    403
71.5     426
71.52    396
71.54    383
71.56    430
71.58    409
71.6     390
71.62    367
71.64    412
71.66    406
71.68    483
71.7     429
71.72    440
71.74    422
71.76    394
71.78    395
71.8     468
71.82    467
71.84    445
71.86    432
71.88    461
71.9     449
71.92    455
71.94    454
71.96    451
71.98    500
72.0     526
72.02    490
72.04    455
72.06    461
72.08    494
72.1     469
72.12    523
72.14    556
72.16    537
72.18    545
72.2     564
72.22    542
72.24    547
72.26    587
72.28    655
72.3     639
72.32    665
72.34    656
72.36    675
72.38    796
72.4     1074
72.42    1615
72.44    2621
72.46    3922
72.48    5380
72.5     6830
72.52    7970
72.54    8690
72.56    8689
72.58    8011
72.6     6790
72.62    5378
72.64    4010
72.66    2751
72.68    1789
72.7     1251
72.72    872
72.74    760
72.76    673
72.78    635
72.8     609
72.82    641
72.84    605
72.86    570
72.88    575
72.9     555
72.92    495
72.94    502
72.96    481
72.98    519
73.0     498
73.02    527
73.04    463
73.06    493
73.08    565
73.1     558
73.12    593
73.14    631
73.16    665
73.18    669
73.2     600
73.22    565
73.24    480
73.26    467
73.28    425
73.3     428
73.32    461
73.34    531
73.36    645
73.38    777
73.4     863
73.42    1013
73.44    1115
73.46    1133
73.48    1163
73.5     1220
73.52    1203
73.54    1205
73.56    1214
73.58    1187
73.6     1092
73.62    1033
73.64    915
73.66    732
73.68    591
73.7     423
73.72    337
73.74    307
73.76    288
73.78    273
73.8     282
73.82    346
73.84    388
73.86    411
73.88    428
73.9     480
73.92    532
73.94    521
73.96    559
73.98    553
74.0     532
74.02    580
74.04    564
74.06    570
74.08    562
74.1     530
74.12    482
74.14    603
74.16    877
74.18    1174
74.2     1515
74.22    1896
74.24    2173
74.26    2398
74.28    2510
74.3     2518
74.32    2538
74.34    2548
74.36    2494
74.38    2360
74.4     2209
74.42    1992
74.44    1729
74.46    1494
74.48    1220
74.5     982
74.52    867
74.54    690
74.56    609
74.58    596
74.6     641
74.62    659
74.64    738
74.66    858
74.68    1053
74.7     1357
74.72    1884
74.74    2401
74.76    3062
74.78    3610
74.8     4010
74.82    4147
74.84    3961
74.86    3556
74.88    2989
74.9     2290
74.92    1746
74.94    1208
74.96    814
74.98    507
75.0     381
75.02    391
75.04    350
75.06    407
75.08    428
75.1     443
75.12    580
75.14    637
75.16    694
75.18    756
75.2     842
75.22    917
75.24    867
75.26    871
75.28    766
75.3     679
75.32    613
75.34    507
75.36    518
75.38    517
75.4     505
75.42    447
75.44    470
75.46    519
75.48    459
75.5     529
75.52    528
75.54    537
75.56    606
75.58    546
75.6     464
75.62    412
75.64    462
75.66    446
75.68    353
75.7     418
75.72    405
75.74    440
75.76    415
75.78    351
75.8     366
75.82    418
75.84    401
75.86    395
75.88    345
75.9     401
75.92    443
75.94    463
75.96    425
75.98    421
76.0     448
76.02    397
76.04    368
76.06    435
76.08    455
76.1     500
76.12    521
76.14    484
76.16    487
76.18    511
76.2     445
76.22    384
76.24    426
76.26    450
76.28    414
76.3     383
76.32    349
76.34    313
76.36    342
76.38    349
76.4     261
76.42    288
76.44    333
76.46    393
76.48    413
76.5     488
76.52    556
76.54    569
76.56    572
76.58    535
76.6     469
76.62    428
76.64    397
76.66    343
76.68    323
76.7     365
76.72    381
76.74    391
76.76    426
76.78    442
76.8     430
76.82    428
76.84    465
76.86    421
76.88    461
76.9     478
76.92    446
76.94    455
76.96    512
76.98    519
77.0     491
77.02    554
77.04    575
77.06    538
77.08    547
77.1     506
77.12    472
77.14    528
77.16    543
77.18    513
77.2     477
77.22    486
77.24    443
77.26    394
77.28    414
77.3     427
77.32    486
77.34    561
77.36    582
77.38    615
77.4     712
77.42    931
77.44    1451
77.46    2227
77.48    3308
77.5     4491
77.52    5573
77.54    6435
77.56    7015
77.58    7291
77.6     7241
77.62    7020
77.64    6673
77.66    6160
77.68    5547
77.7     4848
77.72    3963
77.74    3093
77.76    2250
77.78    1639
77.8     1154
77.82    934
77.84    779
77.86    730
77.88    717
77.9     714
77.92    696
77.94    688
77.96    639
77.98    675
78.0     711
78.02    730
78.04    695
78.06    624
78.08    591
78.1     491
78.12    480
78.14    415
78.16    403
78.18    367
78.2     392
78.22    362
78.24    341
78.26    283
78.28    324
78.3     303
78.32    403
78.34    397
78.36    412
78.38    388
78.4     433
78.42    460
78.44    484
78.46    515
78.48    563
78.5     546
78.52    578
78.54    515
78.56    517
78.58    486
78.6     421
78.62    378
78.64    355
78.66    395
78.68    420
78.7     385
78.72    368
78.74    365
78.76    456
78.78    460
78.8     444
78.82    475
78.84    555
78.86    578
78.88    590
78.9     555
78.92    510
78.94    505
78.96    516
78.98    445
79.0     377
79.02    364
79.04    366
79.06    343
79.08    324
79.1     378
79.12    505
79.14    617
79.16    675
79.18    688
79.2     670
79.22    647
79.24    559
79.26    533
79.28    432
79.3     464
79.32    538
79.34    502
79.36    494
79.38    476
79.4     407
79.42    351
79.44    342
79.46    399
79.48    386
79.5     411
79.52    437
79.54    358
79.56    345
79.58    306
79.6     257
79.62    300
79.64    390
79.66    477
79.68    504
79.7     545
79.72    598
79.74    582
79.76    538
79.78    523
79.8     537
79.82    525
79.84    539
79.86    512
79.88    467
79.9     458
79.92    524
79.94    496
79.96    491
79.98    542
80.0     633
80.02    641
80.04    712
80.06    788
80.08    822
80.1     826
80.12    865
80.14    768
80.16    702
80.18    614
80.2     590
80.22    473
80.24    458
80.26    496
80.28    482
80.3     431
80.32    454
80.34    446
80.36    454
80.38    471
80.4     455
80.42    465
80.44    461
80.46    464
80.48    424
80.5     356
80.52    390
80.54    421
80.56    401
80.58    430
80.6     368
80.62    418
80.64    420
80.66    446
80.68    441
80.7     424
80.72    434
80.74    399
80.76    371
80.78    398
80.8     360
80.82    365
80.84    391
80.86    384
80.88    429
80.9     410
80.92    423
80.94    431
80.96    494
80.98    504
81.0     521
81.02    452
81.04    430
81.06    387
81.08    367
81.1     294
81.12    231
81.14    180
81.16    182
81.18    215
81.2     231
81.22    228
81.24    337
81.26    431
81.28    480
81.3     444
81.32    408
81.34    418
81.36    425
81.38    435
81.4     383
81.42    360
81.44    421
81.46    407
81.48    403
81.5     305
81.52    332
81.54    394
81.56    421
81.58    427
81.6     434
81.62    466
81.64    498
81.66    444
81.68    412
81.7     339
81.72    313
81.74    359
81.76    402
81.78    374
81.8     443
81.82    499
81.84    533
81.86    520
81.88    408
81.9     390
81.92    343
81.94    373
81.96    425
81.98    393
82.0     476
82.02    476
82.04    441
82.06    356
82.08    217
82.1     232
82.12    281
82.14    328
82.16    386
82.18    397
82.2     481
82.22    533
82.24    506
82.26    429
82.28    355
82.3     327
82.32    402
82.34    396
82.36    399
82.38    382
82.4     457
82.42    520
82.44    457
82.46    396
82.48    320
82.5     270
82.52    319
82.54    297
82.56    326
82.58    356
82.6     390
82.62    409
82.64    368
82.66    374
82.68    369
82.7     346
82.72    380
82.74    377
82.76    410
82.78    362
82.8     267
82.82    281
82.84    302
82.86    326
82.88    318
82.9     313
82.92    347
82.94    325
82.96    340
82.98    307
83.0     304
83.02    376
83.04    484
83.06    573
83.08    548
83.1     518
83.12    469
83.14    419
83.16    416
83.18    405
83.2     308
83.22    320
83.24    389
83.26    439
83.28    381
83.3     341
83.32    315
83.34    318
83.36    349
83.38    377
83.4     295
83.42    325
83.44    345
83.46    378
83.48    373
83.5     392
83.52    374
83.54    421
83.56    458
83.58    528
83.6     501
83.62    471
83.64    460
83.66    464
83.68    446
83.7     479
83.72    458
83.74    481
83.76    434
83.78    488
83.8     425
83.82    358
83.84    333
83.86    339
83.88    366
83.9     386
83.92    403
83.94    415
83.96    318
83.98    356
84.0     395
84.02    386
84.04    424
84.06    464
84.08    486
84.1     444
84.12    413
84.14    341
84.16    278
84.18    287
84.2     290
84.22    325
84.24    392
84.26    396
84.28    402
84.3     347
84.32    357
84.34    377
84.36    416
84.38    396
84.4     431
84.42    529
84.44    516
84.46    519
84.48    413
84.5     322
84.52    308
84.54    309
84.56    305
84.58    302
84.6     336
84.62    427
84.64    499
84.66    599
84.68    590
84.7     689
84.72    784
84.74    944
84.76    955
84.78    884
84.8     750
84.82    654
84.84    581
84.86    502
84.88    457
84.9     400
84.92    384
84.94    490
84.96    449
84.98    440
85.0     363
85.02    361
85.04    434
85.06    447
85.08    465
85.1     386
85.12    374
85.14    399
85.16    409
85.18    454
85.2     393
85.22    407
85.24    389
85.26    346
85.28    302
85.3     241
85.32    270
85.34    332
85.36    436
85.38    459
85.4     471
85.42    519
85.44    516
85.46    511
85.48    495
85.5     541
85.52    577
85.54    562
85.56    562
85.58    462
85.6     404
85.62    358
85.64    331
85.66    330
85.68    365
85.7     399
85.72    410
85.74    445
85.76    441
85.78    398
85.8     445
85.82    452
85.84    482
85.86    531
85.88    495
85.9     493
85.92    505
85.94    520
85.96    460
85.98    476
86.0     490
86.02    457
86.04    475
86.06    453
86.08    405
86.1     448
86.12    447
86.14    473
86.16    457
86.18    396
86.2     326
86.22    280
86.24    291
86.26    305
86.28    394
86.3     463
86.32    605
86.34    801
86.36    1019
86.38    1245
86.4     1473
86.42    1638
86.44    1791
86.46    1896
86.48    1907
86.5     1753
86.52    1521
86.54    1256
86.56    1027
86.58    868
86.6     648
86.62    469
86.64    344
86.66    337
86.68    355
86.7     359
86.72    283
86.74    317
86.76    345
86.78    437
86.8     484
86.82    547
86.84    549
86.86    589
86.88    615
86.9     594
86.92    562
86.94    544
86.96    492
86.98    495
87.0     512
87.02    489
87.04    453
87.06    401
87.08    336
87.1     279
87.12    310
87.14    287
87.16    295
87.18    353
87.2     400
87.22    388
87.24    348
87.26    313
87.28    373
87.3     430
87.32    489
87.34    510
87.36    535
87.38    562
87.4     577
87.42    531
87.44    458
87.46    438
87.48    491
87.5     539
87.52    566
87.54    616
87.56    600
87.58    540
87.6     536
87.62    508
87.64    433
87.66    379
87.68    376
87.7     409
87.72    414
87.74    457
87.76    457
87.78    440
87.8     417
87.82    429
87.84    394
87.86    421
87.88    429
87.9     360
87.92    418
87.94    429
87.96    450
87.98    409
88.0     396
88.02    370
88.04    346
88.06    351
88.08    391
88.1     370
88.12    421
88.14    404
88.16    459
88.18    475
88.2     470
88.22    442
88.24    472
88.26    526
88.28    566
88.3     513
88.32    459
88.34    445
88.36    430
88.38    350
88.4     304
88.42    322
88.44    355
88.46    389
88.48    407
88.5     399
88.52    370
88.54    395
88.56    409
88.58    398
88.6     445
88.62    468
88.64    493
88.66    507
88.68    573
88.7     545
88.72    530
88.74    566
88.76    516
88.78    536
88.8     561
88.82    550
88.84    474
88.86    439
88.88    451
88.9     396
88.92    380
88.94    358
88.96    278
88.98    329
89.0     329
89.02    303
89.04    279
89.06    286
89.08    277
89.1     280
89.12    318
89.14    353
89.16    342
89.18    393
89.2     430
89.22    462
89.24    524
89.26    541
89.28    536
89.3     568
89.32    503
89.34    422
89.36    350
89.38    323
89.4     285
89.42    254
89.44    304
89.46    390
89.48    423
89.5     467
89.52    452
89.54    427
89.56    417
89.58    395
89.6     431
89.62    528
89.64    540
89.66    547
89.68    493
89.7     482
89.72    531
89.74    494
89.76    521
89.78    533
89.8     658
89.82    714
89.84    617
89.86    577
89.88    490
89.9     418
89.92    443
89.94    434
89.96    566
89.98    576
90.0     559
