?
5.0      798
5.02     798
5.04     1035
5.06     932
5.08     971
5.1      976
5.12     998
5.14     991
5.16     1015
5.18     1045
5.2      1047
5.22     1073
5.24     1068
5.26     1089
5.28     1073
5.3      1093
5.32     1074
5.34     1041
5.36     1055
5.38     1059
5.4      1062
5.42     1095
5.44     1061
5.46     1082
5.48     1061
5.5      1104
5.52     1101
5.54     1112
5.56     1107
5.58     1080
5.6      1090
5.62     1105
5.64     1073
5.66     1079
5.68     1093
5.7      1102
5.72     1141
5.74     1151
5.76     1154
5.78     1115
5.8      1135
5.82     1137
5.84     1101
5.86     1114
5.88     1125
5.9      1120
5.92     1126
5.94     1164
5.96     1176
5.98     1186
6.0      1193
6.02     1198
6.04     1172
6.06     1184
6.08     1141
6.1      1116
6.12     1075
6.14     1111
6.16     1064
6.18     1128
6.2      1141
6.22     1230
6.24     1225
6.26     1260
6.28     1233
6.3      1257
6.32     1218
6.34     1177
6.36     1159
6.38     1156
6.4      1150
6.42     1180
6.44     1130
6.46     1126
6.48     1136
6.5      1168
6.52     1156
6.54     1176
6.56     1220
6.58     1196
6.6      1181
6.62     1201
6.64     1163
6.66     1179
6.68     1176
6.7      1215
6.72     1216
6.74     1264
6.76     1253
6.78     1248
6.8      1214
6.82     1233
6.84     1196
6.86     1204
6.88     1153
6.9      1217
6.92     1196
6.94     1172
6.96     1141
6.98     1170
7.0      1135
7.02     1148
7.04     1114
7.06     1129
7.08     1114
7.1      1156
7.12     1136
7.14     1121
7.16     1141
7.18     1163
7.2      1210
7.22     1197
7.24     1197
7.26     1176
7.28     1189
7.3      1148
7.32     1133
7.34     1155
7.36     1137
7.38     1190
7.4      1258
7.42     1254
7.44     1245
7.46     1238
7.48     1230
7.5      1132
7.52     1148
7.54     1153
7.56     1130
7.58     1197
7.6      1182
7.62     1196
7.64     1182
7.66     1208
7.68     1177
7.7      1136
7.72     1158
7.74     1134
7.76     1146
7.78     1168
7.8      1169
7.82     1175
7.84     1184
7.86     1191
7.88     1201
7.9      1173
7.92     1185
7.94     1197
7.96     1239
7.98     1200
8.0      1226
8.02     1176
8.04     1176
8.06     1195
8.08     1184
8.1      1148
8.12     1186
8.14     1153
8.16     1170
8.18     1110
8.2      1180
8.22     1105
8.24     1186
8.26     1195
8.28     1186
8.3      1183
8.32     1146
8.34     1115
8.36     1121
8.38     1125
8.4      1142
8.42     1114
8.44     1174
8.46     1189
8.48     1168
8.5      1169
8.52     1099
8.54     1177
8.56     1141
8.58     1152
8.6      1123
8.62     1109
8.64     1073
8.66     1122
8.68     1076
8.7      1068
8.72     1106
8.74     1139
8.76     1103
8.78     1105
8.8      1054
8.82     998
8.84     1009
8.86     1021
8.88     1017
8.9      1066
8.92     1160
8.94     1167
8.96     1173
8.98     1181
9.0      1151
9.02     1123
9.04     1096
9.06     1039
9.08     1012
9.1      1065
9.12     1069
9.14     1067
9.16     1024
9.18     1043
9.2      1059
9.22     1010
9.24     982
9.26     943
9.28     933
9.3      954
9.32     956
9.34     948
9.36     960
9.38     1017
9.4      1001
9.42     981
9.44     988
9.46     939
9.48     930
9.5      950
9.52     895
9.54     934
9.56     957
9.58     973
9.6      948
9.62     998
9.64     950
9.66     929
9.68     966
9.7      944
9.72     883
9.74     850
9.76     806
9.78     792
9.8      781
9.82     819
9.84     810
9.86     849
9.88     895
9.9      935
9.92     946
9.94     847
9.96     850
9.98     832
10.0     833
10.02    862
10.04    857
10.06    850
10.08    836
10.1     908
10.12    862
10.14    853
10.16    815
10.18    823
10.2     847
10.22    864
10.24    802
10.26    804
10.28    803
10.3     804
10.32    770
10.34    743
10.36    732
10.38    785
10.4     765
10.42    774
10.44    721
10.46    747
10.48    785
10.5     776
10.52    739
10.54    724
10.56    748
10.58    759
10.6     721
10.62    706
10.64    670
10.66    705
10.68    712
10.7     712
10.72    692
10.74    728
10.76    735
10.78    744
10.8     722
10.82    654
10.84    642
10.86    684
10.88    660
10.9     700
10.92    733
10.94    778
10.96    836
10.98    814
11.0     789
11.02    761
11.04    762
11.06    729
11.08    726
11.1     747
11.12    709
11.14    694
11.16    729
11.18    678
11.2     684
11.22    736
11.24    707
11.26    740
11.28    765
11.3     728
11.32    721
11.34    697
11.36    687
11.38    685
11.4     757
11.42    770
11.44    765
11.46    830
11.48    818
11.5     743
11.52    720
11.54    696
11.56    645
11.58    669
11.6     674
11.62    662
11.64    696
11.66    731
11.68    774
11.7     737
11.72    688
11.74    739
11.76    688
11.78    685
11.8     699
11.82    749
11.84    754
11.86    797
11.88    841
11.9     765
11.92    685
11.94    738
11.96    703
11.98    703
12.0     763
12.02    768
12.04    771
12.06    838
12.08    823
12.1     768
12.12    757
12.14    772
12.16    749
12.18    744
12.2     767
12.22    750
12.24    781
12.26    814
12.28    866
12.3     907
12.32    903
12.34    882
12.36    877
12.38    863
12.4     811
12.42    769
12.44    791
12.46    790
12.48    778
12.5     767
12.52    828
12.54    810
12.56    807
12.58    817
12.6     793
12.62    771
12.64    771
12.66    785
12.68    768
12.7     739
12.72    800
12.74    778
12.76    744
12.78    740
12.8     792
12.82    793
12.84    790
12.86    898
12.88    910
12.9     857
12.92    923
12.94    938
12.96    904
12.98    941
13.0     1014
13.02    994
13.04    983
13.06    1006
13.08    1025
13.1     1015
13.12    1051
13.14    989
13.16    940
13.18    977
13.2     967
13.22    926
13.24    911
13.26    901
13.28    933
13.3     909
13.32    951
13.34    904
13.36    909
13.38    1006
13.4     1064
13.42    1046
13.44    1085
13.46    1175
13.48    1192
13.5     1187
13.52    1223
13.54    1192
13.56    1167
13.58    1119
13.6     1076
13.62    990
13.64    1013
13.66    1081
13.68    1042
13.7     1042
13.72    1074
13.74    1066
13.76    1076
13.78    1051
13.8     1097
13.82    1076
13.84    1104
13.86    1145
13.88    1156
13.9     1155
13.92    1123
13.94    1112
13.96    1131
13.98    1135
14.0     1207
14.02    1169
14.04    1138
14.06    1146
14.08    1161
14.1     1130
14.12    1048
14.14    1084
14.16    1121
14.18    1124
14.2     1165
14.22    1142
14.24    1114
14.26    1106
14.28    1098
14.3     1098
14.32    1062
14.34    1076
14.36    1117
14.38    1130
14.4     1152
14.42    1210
14.44    1274
14.46    1249
14.48    1247
14.5     1254
14.52    1276
14.54    1218
14.56    1170
14.58    1091
14.6     1047
14.62    1044
14.64    1071
14.66    1066
14.68    1099
14.7     1193
14.72    1253
14.74    1227
14.76    1211
14.78    1206
14.8     1178
14.82    1171
14.84    1212
14.86    1250
14.88    1305
14.9     1354
14.92    1407
14.94    1415
14.96    1419
14.98    1420
15.0     1339
15.02    1303
15.04    1274
15.06    1185
15.08    1154
15.1     1120
15.12    1162
15.14    1113
15.16    1117
15.18    1133
15.2     1098
15.22    1147
15.24    1187
15.26    1211
15.28    1258
15.3     1217
15.32    1189
15.34    1164
15.36    1168
15.38    1105
15.4     1082
15.42    1140
15.44    1168
15.46    1184
15.48    1155
15.5     1100
15.52    1089
15.54    1126
15.56    1173
15.58    1215
15.6     1271
15.62    1309
15.64    1302
15.66    1253
15.68    1216
15.7     1197
15.72    1166
15.74    1127
15.76    1107
15.78    1155
15.8     1168
15.82    1239
15.84    1304
15.86    1330
15.88    1391
15.9     1421
15.92    1427
15.94    1476
15.96    1465
15.98    1479
16.0     1550
16.02    1692
16.04    1735
16.06    1793
16.08    1876
16.1     1954
16.12    2068
16.14    2254
16.16    2321
16.18    2449
16.2     2693
16.22    2926
16.24    3151
16.26    3543
16.28    4033
16.3     4527
16.32    5191
16.34    6119
16.36    7165
16.38    8516
16.4     10198
16.42    12405
16.44    15541
16.46    20093
16.48    27148
16.5     36951
16.52    48070
16.54    57008
16.56    60785
16.58    58646
16.6     50961
16.62    39427
16.64    26186
16.66    13817
16.68    5211
16.7     1442
16.72    1154
16.74    1871
16.76    2258
16.78    2314
16.8     2078
16.82    1971
16.84    1855
16.86    1739
16.88    1674
16.9     1672
16.92    1608
16.94    1520
16.96    1471
16.98    1431
17.0     1345
17.02    1418
17.04    1443
17.06    1436
17.08    1417
17.1     1417
17.12    1391
17.14    1343
17.16    1326
17.18    1300
17.2     1319
17.22    1366
17.24    1343
17.26    1282
17.28    1279
17.3     1273
17.32    1247
17.34    1280
17.36    1260
17.38    1185
17.4     1164
17.42    1138
17.44    1093
17.46    1037
17.48    1097
17.5     1132
17.52    1138
17.54    1213
17.56    1174
17.58    1149
17.6     1130
17.62    1132
17.64    1110
17.66    1073
17.68    1112
17.7     1098
17.72    1081
17.74    1114
17.76    1122
17.78    1131
17.8     1067
17.82    1070
17.84    1058
17.86    998
17.88    960
17.9     927
17.92    981
17.94    1004
17.96    967
17.98    924
18.0     973
18.02    1044
18.04    972
18.06    961
18.08    973
18.1     1049
18.12    1174
18.14    1170
18.16    1100
18.18    1045
18.2     1064
18.22    1004
18.24    935
18.26    966
18.28    961
18.3     1037
18.32    1087
18.34    1056
18.36    1029
18.38    1007
18.4     1015
18.42    966
18.44    964
18.46    949
18.48    914
18.5     917
18.52    921
18.54    903
18.56    945
18.58    984
18.6     998
18.62    939
18.64    924
18.66    890
18.68    853
18.7     864
18.72    866
18.74    842
18.76    906
18.78    951
18.8     954
18.82    943
18.84    990
18.86    978
18.88    975
18.9     1039
18.92    1047
18.94    1027
18.96    1018
18.98    993
19.0     956
19.02    969
19.04    968
19.06    948
19.08    934
19.1     965
19.12    974
19.14    904
19.16    859
19.18    852
19.2     836
19.22    829
19.24    797
19.26    865
19.28    928
19.3     883
19.32    845
19.34    759
19.36    738
19.38    765
19.4     746
19.42    755
19.44    813
19.46    899
19.48    905
19.5     846
19.52    813
19.54    737
19.56    735
19.58    776
19.6     777
19.62    780
19.64    761
19.66    781
19.68    807
19.7     881
19.72    932
19.74    870
19.76    865
19.78    858
19.8     863
19.82    841
19.84    811
19.86    820
19.88    837
19.9     855
19.92    798
19.94    700
19.96    690
19.98    734
20.0     744
20.02    759
20.04    718
20.06    722
20.08    728
20.1     706
20.12    638
20.14    670
20.16    769
20.18    841
20.2     832
20.22    847
20.24    806
20.26    825
20.28    756
20.3     729
20.32    752
20.34    775
20.36    800
20.38    783
20.4     743
20.42    745
20.44    724
20.46    731
20.48    709
20.5     746
20.52    827
20.54    836
20.56    868
20.58    871
20.6     810
20.62    747
20.64    696
20.66    699
20.68    675
20.7     693
20.72    724
20.74    771
20.76    789
20.78    788
20.8     738
20.82    680
20.84    640
20.86    659
20.88    710
20.9     791
20.92    805
20.94    839
20.96    773
20.98    774
21.0     738
21.02    728
21.04    688
21.06    679
21.08    701
21.1     676
21.12    670
21.14    663
21.16    620
21.18    599
21.2     646
21.22    716
21.24    751
21.26    706
21.28    649
21.3     629
21.32    635
21.34    627
21.36    622
21.38    596
21.4     646
21.42    661
21.44    696
21.46    668
21.48    602
21.5     672
21.52    713
21.54    741
21.56    739
21.58    667
21.6     658
21.62    699
21.64    707
21.66    646
21.68    532
21.7     589
21.72    659
21.74    619
21.76    527
21.78    442
21.8     515
21.82    586
21.84    560
21.86    513
21.88    516
21.9     591
21.92    643
21.94    597
21.96    561
21.98    539
22.0     553
22.02    484
22.04    423
22.06    391
22.08    427
22.1     471
22.12    485
22.14    510
22.16    538
22.18    552
22.2     567
22.22    499
22.24    479
22.26    483
22.28    499
22.3     547
22.32    520
22.34    515
22.36    551
22.38    586
22.4     642
22.42    593
22.44    597
22.46    588
22.48    603
22.5     650
22.52    618
22.54    634
22.56    680
22.58    695
22.6     702
22.62    662
22.64    673
22.66    645
22.68    604
22.7     526
22.72    491
22.74    530
22.76    555
22.78    592
22.8     577
22.82    582
22.84    636
22.86    574
22.88    482
22.9     377
22.92    426
22.94    529
22.96    591
22.98    585
23.0     540
23.02    547
23.04    533
23.06    481
23.08    514
23.1     503
23.12    603
23.14    604
23.16    564
23.18    514
23.2     531
23.22    567
23.24    537
23.26    558
23.28    598
23.3     594
23.32    616
23.34    554
23.36    590
23.38    639
23.4     683
23.42    690
23.44    630
23.46    591
23.48    535
23.5     487
23.52    449
23.54    435
23.56    502
23.58    511
23.6     491
23.62    487
23.64    476
23.66    548
23.68    551
23.7     577
23.72    556
23.74    550
23.76    556
23.78    532
23.8     528
23.82    511
23.84    500
23.86    498
23.88    465
23.9     466
23.92    511
23.94    464
23.96    433
23.98    388
24.0     417
24.02    394
24.04    475
24.06    461
24.08    473
24.1     459
24.12    468
24.14    406
24.16    395
24.18    444
24.2     485
24.22    489
24.24    545
24.26    509
24.28    556
24.3     622
24.32    563
24.34    576
24.36    565
24.38    616
24.4     550
24.42    448
24.44    412
24.46    378
24.48    477
24.5     550
24.52    527
24.54    575
24.56    541
24.58    557
24.6     476
24.62    425
24.64    428
24.66    434
24.68    506
24.7     521
24.72    541
24.74    532
24.76    512
24.78    512
24.8     444
24.82    403
24.84    400
24.86    393
24.88    399
24.9     427
24.92    429
24.94    454
24.96    522
24.98    585
25.0     570
25.02    502
25.04    460
25.06    396
25.08    384
25.1     344
25.12    286
25.14    288
25.16    323
25.18    364
25.2     330
25.22    350
25.24    372
25.26    440
25.28    498
25.3     445
25.32    356
25.34    306
25.36    277
25.38    294
25.4     315
25.42    402
25.44    416
25.46    491
25.48    507
25.5     489
25.52    427
25.54    403
25.56    414
25.58    446
25.6     470
25.62    509
25.64    464
25.66    481
25.68    445
25.7     475
25.72    473
25.74    449
25.76    440
25.78    411
25.8     418
25.82    378
25.84    374
25.86    421
25.88    452
25.9     477
25.92    506
25.94    510
25.96    507
25.98    467
26.0     442
26.02    365
26.04    395
26.06    445
26.08    493
26.1     468
26.12    495
26.14    461
26.16    436
26.18    388
26.2     386
26.22    358
26.24    389
26.26    440
26.28    446
26.3     395
26.32    378
26.34    279
26.36    303
26.38    388
26.4     467
26.42    499
26.44    502
26.46    507
26.48    469
26.5     455
26.52    436
26.54    334
26.56    302
26.58    327
26.6     347
26.62    369
26.64    381
26.66    397
26.68    402
26.7     468
26.72    408
26.74    349
26.76    306
26.78    362
26.8     441
26.82    484
26.84    507
26.86    454
26.88    404
26.9     397
26.92    346
26.94    356
26.96    367
26.98    459
27.0     453
27.02    461
27.04    473
27.06    428
27.08    414
27.1     370
27.12    335
27.14    326
27.16    342
27.18    384
27.2     365
27.22    457
27.24    506
27.26    474
27.28    450
27.3     377
27.32    386
27.34    438
27.36    441
27.38    429
27.4     461
27.42    456
27.44    386
27.46    337
27.48    311
27.5     351
27.52    399
27.54    425
27.56    401
27.58    351
27.6     353
27.62    304
27.64    267
27.66    268
27.68    288
27.7     367
27.72    429
27.74    440
27.76    414
27.78    343
27.8     326
27.82    315
27.84    315
27.86    310
27.88    327
27.9     346
27.92    337
27.94    260
27.96    249
27.98    278
28.0     339
28.02    411
28.04    449
28.06    433
28.08    345
28.1     274
28.12    208
28.14    205
28.16    307
28.18    372
28.2     427
28.22    424
28.24    434
28.26    381
28.28    318
28.3     295
28.32    297
28.34    320
28.36    364
28.38    325
28.4     356
28.42    389
28.44    467
28.46    463
28.48    433
28.5     401
28.52    429
28.54    429
28.56    447
28.58    449
28.6     466
28.62    475
28.64    482
28.66    451
28.68    394
28.7     417
28.72    443
28.74    453
28.76    432
28.78    370
28.8     320
28.82    302
28.84    327
28.86    347
28.88    318
28.9     315
28.92    338
28.94    360
28.96    323
28.98    308
29.0     368
29.02    401
29.04    442
29.06    478
29.08    447
29.1     402
29.12    363
29.14    316
29.16    271
29.18    285
29.2     339
29.22    321
29.24    322
29.26    362
29.28    354
29.3     338
29.32    327
29.34    319
29.36    325
29.38    350
29.4     382
29.42    352
29.44    364
29.46    362
29.48    337
29.5     354
29.52    379
29.54    348
29.56    398
29.58    376
29.6     334
29.62    307
29.64    286
29.66    245
29.68    245
29.7     287
29.72    371
29.74    372
29.76    405
29.78    387
29.8     360
29.82    344
29.84    346
29.86    355
29.88    364
29.9     398
29.92    388
29.94    345
29.96    296
29.98    320
30.0     313
30.02    344
30.04    406
30.06    438
30.08    465
30.1     454
30.12    412
30.14    396
30.16    390
30.18    405
30.2     396
30.22    419
30.24    451
30.26    485
30.28    483
30.3     443
30.32    378
30.34    343
30.36    316
30.38    269
30.4     251
30.42    212
30.44    252
30.46    325
30.48    385
30.5     441
30.52    371
30.54    344
30.56    317
30.58    291
30.6     281
30.62    315
30.64    351
30.66    391
30.68    454
30.7     400
30.72    279
30.74    250
30.76    217
30.78    239
30.8     319
30.82    354
30.84    354
30.86    378
30.88    423
30.9     339
30.92    318
30.94    305
30.96    299
30.98    364
31.0     378
31.02    308
31.04    286
31.06    323
31.08    253
31.1     227
31.12    302
31.14    242
31.16    292
31.18    305
31.2     295
31.22    315
31.24    318
31.26    346
31.28    277
31.3     324
31.32    421
31.34    351
31.36    400
31.38    399
31.4     368
31.42    430
31.44    409
31.46    354
31.48    343
31.5     273
31.52    259
31.54    185
31.56    215
31.58    276
31.6     307
31.62    387
31.64    455
31.66    460
31.68    539
31.7     467
31.72    412
31.74    298
31.76    261
31.78    274
31.8     289
31.82    341
31.84    385
31.86    403
31.88    480
31.9     402
31.92    356
31.94    265
31.96    228
31.98    250
32.0     294
32.02    365
32.04    423
32.06    467
32.08    495
32.1     416
32.12    377
32.14    345
32.16    395
32.18    480
32.2     566
32.22    612
32.24    670
32.26    645
32.28    654
32.3     666
32.32    639
32.34    641
32.36    658
32.38    613
32.4     589
32.42    531
32.44    469
32.46    459
32.48    468
32.5     545
32.52    545
32.54    560
32.56    523
32.58    455
32.6     454
32.62    415
32.64    391
32.66    423
32.68    430
32.7     516
32.72    548
32.74    524
32.76    525
32.78    485
32.8     444
32.82    438
32.84    438
32.86    463
32.88    520
32.9     532
32.92    555
32.94    537
32.96    560
32.98    518
33.0     471
33.02    433
33.04    418
33.06    441
33.08    402
33.1     411
33.12    480
33.14    519
33.16    558
33.18    614
33.2     649
33.22    669
33.24    755
33.26    730
33.28    736
33.3     845
33.32    924
33.34    1076
33.36    1330
33.38    1820
33.4     2550
33.42    3698
33.44    5266
33.46    7171
33.48    9346
33.5     11597
33.52    13510
33.54    14444
33.56    14078
33.58    12510
33.6     10190
33.62    7540
33.64    4943
33.66    2764
33.68    1252
33.7     625
33.72    567
33.74    602
33.76    632
33.78    604
33.8     650
33.82    704
33.84    645
33.86    627
33.88    575
33.9     566
33.92    604
33.94    598
33.96    603
33.98    590
34.0     594
34.02    586
34.04    483
34.06    476
34.08    454
34.1     501
34.12    517
34.14    466
34.16    425
34.18    391
34.2     410
34.22    415
34.24    443
34.26    466
34.28    538
34.3     568
34.32    573
34.34    581
34.36    539
34.38    542
34.4     614
34.42    550
34.44    532
34.46    468
34.48    416
34.5     369
34.52    397
34.54    425
34.56    449
34.58    535
34.6     560
34.62    485
34.64    489
34.66    434
34.68    372
34.7     390
34.72    466
34.74    486
34.76    489
34.78    518
34.8     536
34.82    522
34.84    524
34.86    490
34.88    468
34.9     506
34.92    514
34.94    558
34.96    663
34.98    898
35.0     1285
35.02    2176
35.04    3766
35.06    5744
35.08    7923
35.1     9924
35.12    11465
35.14    12338
35.16    12155
35.18    10942
35.2     8948
35.22    6885
35.24    4957
35.26    3301
35.28    2076
35.3     1371
35.32    1077
35.34    1041
35.36    1093
35.38    1095
35.4     1042
35.42    977
35.44    862
35.46    698
35.48    564
35.5     558
35.52    521
35.54    518
35.56    608
35.58    672
35.6     716
35.62    723
35.64    726
35.66    664
35.68    630
35.7     635
35.72    609
35.74    523
35.76    502
35.78    474
35.8     404
35.82    387
35.84    422
35.86    455
35.88    518
35.9     607
35.92    621
35.94    618
35.96    613
35.98    547
36.0     481
36.02    432
36.04    386
36.06    401
36.08    480
36.1     565
36.12    712
36.14    888
36.16    935
36.18    936
36.2     942
36.22    896
36.24    827
36.26    938
36.28    1040
36.3     1135
36.32    1486
36.34    1919
36.36    2520
36.38    4185
36.4     7620
36.42    12418
36.44    17722
36.46    22820
36.48    26476
36.5     28077
36.52    27115
36.54    23565
36.56    18282
36.58    12892
36.6     8417
36.62    5020
36.64    2717
36.66    1500
36.68    991
36.7     942
36.72    971
36.74    954
36.76    963
36.78    964
36.8     879
36.82    807
36.84    755
36.86    614
36.88    536
36.9     566
36.92    670
36.94    692
36.96    788
36.98    840
37.0     852
37.02    846
37.04    839
37.06    759
37.08    850
37.1     1050
37.12    1281
37.14    1429
37.16    1518
37.18    1490
37.2     1388
37.22    1175
37.24    921
37.26    721
37.28    570
37.3     581
37.32    706
37.34    844
37.36    968
37.38    1080
37.4     1071
37.42    979
37.44    800
37.46    633
37.48    372
37.5     301
37.52    247
37.54    278
37.56    339
37.58    398
37.6     426
37.62    471
37.64    487
37.66    490
37.68    502
37.7     516
37.72    492
37.74    518
37.76    466
37.78    427
37.8     438
37.82    403
37.84    481
37.86    483
37.88    556
37.9     588
37.92    668
37.94    698
37.96    663
37.98    621
38.0     528
38.02    384
38.04    352
38.06    273
38.08    244
38.1     280
38.12    393
38.14    393
38.16    450
38.18    478
38.2     484
38.22    448
38.24    506
38.26    470
38.28    404
38.3     392
38.32    387
38.34    225
38.36    239
38.38    278
38.4     272
38.42    323
38.44    483
38.46    478
38.48    505
38.5     569
38.52    552
38.54    420
38.56    398
38.58    357
38.6     243
38.62    199
38.64    226
38.66    228
38.68    295
38.7     428
38.72    484
38.74    495
38.76    505
38.78    493
38.8     420
38.82    290
38.84    265
38.86    269
38.88    310
38.9     398
38.92    488
38.94    494
38.96    500
38.98    479
39.0     436
39.02    352
39.04    363
39.06    344
39.08    367
39.1     390
39.12    386
39.14    315
39.16    327
39.18    303
39.2     270
39.22    316
39.24    384
39.26    442
39.28    505
39.3     514
39.32    477
39.34    433
39.36    375
39.38    273
39.4     211
39.42    288
39.44    330
39.46    391
39.48    468
39.5     497
39.52    484
39.54    461
39.56    382
39.58    300
39.6     267
39.62    252
39.64    237
39.66    268
39.68    353
39.7     437
39.72    489
39.74    538
39.76    508
39.78    470
39.8     373
39.82    266
39.84    190
39.86    211
39.88    231
39.9     302
39.92    369
39.94    414
39.96    421
39.98    531
40.0     531
40.02    550
40.04    562
40.06    630
40.08    615
40.1     618
40.12    632
40.14    637
40.16    635
40.18    709
40.2     716
40.22    728
40.24    782
40.26    852
40.28    868
40.3     844
40.32    798
40.34    713
40.36    608
40.38    531
40.4     506
40.42    540
40.44    628
40.46    727
40.48    801
40.5     835
40.52    808
40.54    771
40.56    681
40.58    594
40.6     584
40.62    632
40.64    674
40.66    732
40.68    846
40.7     909
40.72    909
40.74    896
40.76    850
40.78    813
40.8     775
40.82    880
40.84    1007
40.86    1093
40.88    1205
40.9     1264
40.92    1202
40.94    1186
40.96    1081
40.98    1034
41.0     971
41.02    1120
41.04    1200
41.06    1331
41.08    1386
41.1     1365
41.12    1291
41.14    1345
41.16    1319
41.18    1411
41.2     1517
41.22    1737
41.24    1942
41.26    2237
41.28    2494
41.3     2813
41.32    3258
41.34    3835
41.36    4455
41.38    5166
41.4     6010
41.42    7355
41.44    11101
41.46    21155
41.48    40442
41.5     66196
41.52    91664
41.54    109565
41.56    116051
41.58    110090
41.6     93024
41.62    68082
41.64    41362
41.66    20057
41.68    8247
41.7     4045
41.72    3248
41.74    2756
41.76    2276
41.78    1948
41.8     1873
41.82    1968
41.84    2059
41.86    1972
41.88    1838
41.9     1629
41.92    1338
41.94    1075
41.96    1013
41.98    1030
42.0     1025
42.02    1165
42.04    1205
42.06    1160
42.08    1095
42.1     995
42.12    923
42.14    906
42.16    956
42.18    1015
42.2     1019
42.22    1059
42.24    999
42.26    913
42.28    727
42.3     652
42.32    614
42.34    612
42.36    597
42.38    671
42.4     710
42.42    786
42.44    799
42.46    792
42.48    762
42.5     804
42.52    821
42.54    776
42.56    767
42.58    755
42.6     743
42.62    677
42.64    665
42.66    665
42.68    679
42.7     713
42.72    746
42.74    775
42.76    797
42.78    728
42.8     707
42.82    625
42.84    634
42.86    662
42.88    606
42.9     602
42.92    588
42.94    555
42.96    501
42.98    449
43.0     479
43.02    553
43.04    687
43.06    999
43.08    1348
43.1     1730
43.12    2119
43.14    2272
43.16    2306
43.18    2182
43.2     1881
43.22    1497
43.24    1111
43.26    912
43.28    678
43.3     573
43.32    571
43.34    461
43.36    482
43.38    507
43.4     538
43.42    551
43.44    599
43.46    623
43.48    529
43.5     540
43.52    516
43.54    544
43.56    597
43.58    596
43.6     598
43.62    597
43.64    563
43.66    474
43.68    466
43.7     476
43.72    452
43.74    513
43.76    471
43.78    502
43.8     492
43.82    541
43.84    514
43.86    551
43.88    672
43.9     662
43.92    647
43.94    655
43.96    588
43.98    573
44.0     440
44.02    359
44.04    301
44.06    298
44.08    302
44.1     361
44.12    506
44.14    577
44.16    644
44.18    729
44.2     732
44.22    703
44.24    590
44.26    515
44.28    427
44.3     408
44.32    387
44.34    293
44.36    330
44.38    334
44.4     383
44.42    409
44.44    437
44.46    519
44.48    542
44.5     551
44.52    536
44.54    466
44.56    437
44.58    367
44.6     378
44.62    376
44.64    402
44.66    404
44.68    426
44.7     444
44.72    455
44.74    472
44.76    435
44.78    480
44.8     497
44.82    550
44.84    544
44.86    574
44.88    606
44.9     626
44.92    679
44.94    821
44.96    1129
44.98    1657
45.0     2175
45.02    2589
45.04    2783
45.06    2738
45.08    2513
45.1     2095
45.12    1605
45.14    1187
45.16    948
45.18    836
45.2     788
45.22    721
45.24    682
45.26    532
45.28    468
45.3     380
45.32    336
45.34    295
45.36    270
45.38    343
45.4     395
45.42    510
45.44    585
45.46    583
45.48    573
45.5     488
45.52    412
45.54    334
45.56    327
45.58    341
45.6     368
45.62    461
45.64    468
45.66    457
45.68    423
45.7     352
45.72    262
45.74    282
45.76    385
45.78    406
45.8     434
45.82    471
45.84    445
45.86    402
45.88    354
45.9     348
45.92    301
45.94    340
45.96    410
45.98    412
46.0     410
46.02    415
46.04    437
46.06    442
46.08    465
46.1     502
46.12    568
46.14    581
46.16    590
46.18    571
46.2     545
46.22    530
46.24    474
46.26    355
46.28    253
46.3     206
46.32    227
46.34    183
46.36    205
46.38    241
46.4     332
46.42    408
46.44    423
46.46    476
46.48    478
46.5     505
46.52    471
46.54    423
46.56    369
46.58    332
46.6     362
46.62    359
46.64    435
46.66    451
46.68    404
46.7     390
46.72    354
46.74    335
46.76    302
46.78    353
46.8     431
46.82    429
46.84    449
46.86    411
46.88    299
46.9     228
46.92    141
46.94    149
46.96    221
46.98    264
47.0     309
47.02    328
47.04    387
47.06    452
47.08    360
47.1     387
47.12    355
47.14    352
47.16    390
47.18    350
47.2     327
47.22    312
47.24    299
47.26    337
47.28    304
47.3     354
47.32    349
47.34    403
47.36    478
47.38    456
47.4     443
47.42    441
47.44    417
47.46    405
47.48    355
47.5     380
47.52    431
47.54    466
47.56    390
47.58    315
47.6     296
47.62    293
47.64    224
47.66    191
47.68    275
47.7     410
47.72    518
47.74    558
47.76    589
47.78    649
47.8     624
47.82    579
47.84    453
47.86    375
47.88    327
47.9     262
47.92    257
47.94    308
47.96    361
47.98    458
48.0     551
48.02    609
48.04    658
48.06    631
48.08    551
48.1     494
48.12    459
48.14    451
48.16    374
48.18    404
48.2     449
48.22    411
48.24    444
48.26    418
48.28    389
48.3     400
48.32    369
48.34    446
48.36    484
48.38    483
48.4     482
48.42    423
48.44    466
48.46    467
48.48    400
48.5     343
48.52    299
48.54    383
48.56    419
48.58    413
48.6     416
48.62    454
48.64    485
48.66    442
48.68    358
48.7     254
48.72    284
48.74    290
48.76    290
48.78    337
48.8     332
48.82    363
48.84    308
48.86    304
48.88    327
48.9     362
48.92    476
48.94    546
48.96    623
48.98    629
49.0     523
49.02    481
49.04    348
49.06    293
49.08    247
49.1     238
49.12    278
49.14    348
49.16    365
49.18    356
49.2     371
49.22    398
49.24    384
49.26    381
49.28    387
49.3     375
49.32    382
49.34    368
49.36    392
49.38    449
49.4     494
49.42    471
49.44    483
49.46    466
49.48    439
49.5     379
49.52    343
49.54    273
49.56    296
49.58    281
49.6     324
49.62    319
49.64    348
49.66    400
49.68    382
49.7     383
49.72    392
49.74    353
49.76    383
49.78    352
49.8     409
49.82    451
49.84    464
49.86    410
49.88    348
49.9     319
49.92    284
49.94    276
49.96    244
49.98    201
50.0     292
50.02    349
50.04    347
50.06    355
50.08    360
50.1     392
50.12    358
50.14    329
50.16    234
50.18    214
50.2     210
50.22    170
50.24    207
50.26    270
50.28    330
50.3     458
50.32    426
50.34    452
50.36    458
50.38    495
50.4     427
50.42    361
50.44    329
50.46    293
50.48    342
50.5     311
50.52    232
50.54    275
50.56    324
50.58    379
50.6     376
50.62    347
50.64    394
50.66    470
50.68    483
50.7     411
50.72    348
50.74    382
50.76    430
50.78    422
50.8     405
50.82    405
50.84    455
50.86    488
50.88    414
50.9     391
50.92    330
50.94    381
50.96    366
50.98    341
51.0     361
51.02    372
51.04    377
51.06    421
51.08    388
51.1     399
51.12    400
51.14    424
51.16    400
51.18    390
51.2     401
51.22    400
51.24    415
51.26    436
51.28    409
51.3     438
51.32    478
51.34    447
51.36    431
51.38    406
51.4     447
51.42    485
51.44    459
51.46    445
51.48    467
51.5     450
51.52    437
51.54    315
51.56    252
51.58    182
51.6     201
51.62    193
51.64    217
51.66    272
51.68    368
51.7     413
51.72    504
51.74    447
51.76    467
51.78    387
51.8     323
51.82    261
51.84    273
51.86    282
51.88    306
51.9     265
51.92    390
51.94    462
51.96    564
51.98    577
52.0     579
52.02    612
52.04    609
52.06    532
52.08    421
52.1     305
52.12    318
52.14    336
52.16    376
52.18    435
52.2     508
52.22    575
52.24    565
52.26    474
52.28    425
52.3     369
52.32    304
52.34    314
52.36    313
52.38    318
52.4     368
52.42    353
52.44    364
52.46    338
52.48    379
52.5     367
52.52    416
52.54    478
52.56    515
52.58    542
52.6     580
52.62    577
52.64    629
52.66    584
52.68    568
52.7     504
52.72    479
52.74    450
52.76    383
52.78    354
52.8     333
52.82    358
52.84    414
52.86    415
52.88    437
52.9     477
52.92    451
52.94    498
52.96    452
52.98    428
53.0     445
53.02    500
53.04    516
53.06    550
53.08    518
53.1     563
53.12    586
53.14    633
53.16    600
53.18    644
53.2     663
53.22    725
53.24    726
53.26    762
53.28    787
53.3     858
53.32    1000
53.34    1324
53.36    2236
53.38    4314
53.4     7090
53.42    9836
53.44    11644
53.46    12311
53.48    11697
53.5     9911
53.52    7268
53.54    4465
53.56    2248
53.58    1190
53.6     923
53.62    914
53.64    876
53.66    853
53.68    756
53.7     710
53.72    652
53.74    672
53.76    652
53.78    577
53.8     531
53.82    528
53.84    481
53.86    435
53.88    357
53.9     356
53.92    344
53.94    427
53.96    428
53.98    467
54.0     491
54.02    482
54.04    478
54.06    507
54.08    441
54.1     433
54.12    414
54.14    463
54.16    426
54.18    441
54.2     411
54.22    346
54.24    396
54.26    423
54.28    391
54.3     414
54.32    395
54.34    390
54.36    424
54.38    450
54.4     436
54.42    413
54.44    441
54.46    448
54.48    461
54.5     446
54.52    399
54.54    388
54.56    408
54.58    433
54.6     445
54.62    484
54.64    533
54.66    568
54.68    533
54.7     499
54.72    420
54.74    315
54.76    283
54.78    232
54.8     199
54.82    318
54.84    401
54.86    486
54.88    551
54.9     625
54.92    603
54.94    607
54.96    557
54.98    458
55.0     391
55.02    400
55.04    373
55.06    369
55.08    344
55.1     424
55.12    449
55.14    528
55.16    507
55.18    507
55.2     481
55.22    469
55.24    413
55.26    288
55.28    191
55.3     210
55.32    154
55.34    197
55.36    251
55.38    293
55.4     378
55.42    455
55.44    508
55.46    571
55.48    589
55.5     584
55.52    570
55.54    597
55.56    604
55.58    541
55.6     476
55.62    396
55.64    415
55.66    457
55.68    460
55.7     431
55.72    462
55.74    454
55.76    492
55.78    465
55.8     393
55.82    314
55.84    281
55.86    331
55.88    335
55.9     285
55.92    318
55.94    327
55.96    401
55.98    470
56.0     517
56.02    437
56.04    383
56.06    432
56.08    407
56.1     403
56.12    385
56.14    369
56.16    404
56.18    485
56.2     563
56.22    554
56.24    536
56.26    559
56.28    578
56.3     614
56.32    587
56.34    569
56.36    543
56.38    581
56.4     615
56.42    598
56.44    528
56.46    469
56.48    402
56.5     371
56.52    383
56.54    392
56.56    413
56.58    500
56.6     539
56.62    515
56.64    546
56.66    463
56.68    394
56.7     344
56.72    354
56.74    368
56.76    389
56.78    444
56.8     420
56.82    415
56.84    513
56.86    531
56.88    573
56.9     548
56.92    507
56.94    489
56.96    443
56.98    392
57.0     273
57.02    222
57.04    278
57.06    324
57.08    384
57.1     449
57.12    504
57.14    592
57.16    681
57.18    670
57.2     628
57.22    598
57.24    588
57.26    527
57.28    520
57.3     468
57.32    483
57.34    519
57.36    582
57.38    600
57.4     642
57.42    661
57.44    652
57.46    666
57.48    671
57.5     588
57.52    588
57.54    579
57.56    549
57.58    621
57.6     609
57.62    529
57.64    514
57.66    563
57.68    552
57.7     537
57.72    564
57.74    616
57.76    628
57.78    754
57.8     737
57.82    702
57.84    692
57.86    754
57.88    793
57.9     789
57.92    862
57.94    951
57.96    1060
57.98    1185
58.0     1230
58.02    1216
58.04    1232
58.06    1345
58.08    1365
58.1     1464
58.12    1677
58.14    2333
58.16    4226
58.18    7871
58.2     13386
58.22    19697
58.24    25165
58.26    28319
58.28    28587
58.3     25978
58.32    20813
58.34    14444
58.36    8551
58.38    4250
58.4     2051
58.42    1345
58.44    1132
58.46    1016
58.48    1039
58.5     1098
58.52    1047
58.54    1032
58.56    1073
58.58    978
58.6     866
58.62    790
58.64    656
58.66    556
58.68    537
58.7     561
58.72    501
58.74    479
58.76    456
58.78    451
58.8     471
58.82    532
58.84    539
58.86    534
58.88    582
58.9     632
58.92    639
58.94    586
58.96    529
58.98    533
59.0     551
59.02    565
59.04    524
59.06    426
59.08    389
59.1     415
59.12    406
59.14    399
59.16    397
59.18    438
59.2     464
59.22    539
59.24    544
59.26    499
59.28    456
59.3     417
59.32    433
59.34    439
59.36    422
59.38    386
59.4     365
59.42    434
59.44    443
59.46    435
59.48    368
59.5     400
59.52    512
59.54    563
59.56    548
59.58    524
59.6     507
59.62    493
59.64    452
59.66    351
59.68    246
59.7     212
59.72    202
59.74    210
59.76    217
59.78    211
59.8     255
59.82    320
59.84    440
59.86    488
59.88    516
59.9     502
59.92    477
59.94    467
59.96    431
59.98    297
60.0     289
60.02    268
60.04    359
60.06    383
60.08    426
60.1     463
60.12    526
60.14    595
60.16    604
60.18    591
60.2     552
60.22    457
60.24    414
60.26    374
60.28    350
60.3     332
60.32    345
60.34    376
60.36    399
60.38    488
60.4     434
60.42    450
60.44    483
60.46    514
60.48    483
60.5     452
60.52    432
60.54    410
60.56    418
60.58    453
60.6     454
60.62    527
60.64    547
60.66    522
60.68    470
60.7     432
60.72    394
60.74    373
60.76    363
60.78    357
60.8     404
60.82    396
60.84    418
60.86    427
60.88    446
60.9     447
60.92    478
60.94    500
60.96    466
60.98    459
61.0     437
61.02    356
61.04    353
61.06    380
61.08    443
61.1     465
61.12    491
61.14    493
61.16    442
61.18    512
61.2     506
61.22    461
61.24    451
61.26    433
61.28    419
61.3     356
61.32    335
61.34    303
61.36    224
61.38    300
61.4     353
61.42    443
61.44    493
61.46    504
61.48    512
61.5     480
61.52    521
61.54    537
61.56    402
61.58    369
61.6     390
61.62    427
61.64    481
61.66    541
61.68    512
61.7     515
61.72    556
61.74    613
61.76    570
61.78    605
61.8     648
61.82    695
61.84    813
61.86    884
61.88    832
61.9     826
61.92    740
61.94    778
61.96    793
61.98    924
62.0     1418
62.02    2624
62.04    4620
62.06    7198
62.08    9919
62.1     12455
62.12    14364
62.14    15629
62.16    16060
62.18    15806
62.2     15129
62.22    14329
62.24    13444
62.26    12497
62.28    11292
62.3     9818
62.32    8129
62.34    6470
62.36    4964
62.38    3740
62.4     2777
62.42    2091
62.44    1644
62.46    1405
62.48    1186
62.5     1098
62.52    1015
62.54    969
62.56    917
62.58    911
62.6     962
62.62    1036
62.64    1123
62.66    1167
62.68    1143
62.7     1183
62.72    1107
62.74    1096
62.76    1043
62.78    894
62.8     821
62.82    723
62.84    728
62.86    718
62.88    661
62.9     635
62.92    581
62.94    689
62.96    678
62.98    596
63.0     559
63.02    483
63.04    496
63.06    450
63.08    422
63.1     426
63.12    449
63.14    519
63.16    499
63.18    511
63.2     515
63.22    489
63.24    481
63.26    457
63.28    440
63.3     401
63.32    332
63.34    296
63.36    323
63.38    350
63.4     349
63.42    354
63.44    401
63.46    439
63.48    444
63.5     499
63.52    495
63.54    508
63.56    544
63.58    511
63.6     461
63.62    374
63.64    330
63.66    276
63.68    214
63.7     268
63.72    322
63.74    404
63.76    505
63.78    559
63.8     628
63.82    601
63.84    624
63.86    633
63.88    526
63.9     464
63.92    390
63.94    380
63.96    284
63.98    179
64.0     162
64.02    135
64.04    167
64.06    255
64.08    266
64.1     361
64.12    408
64.14    538
64.16    545
64.18    538
64.2     564
64.22    535
64.24    516
64.26    533
64.28    481
64.3     530
64.32    450
64.34    495
64.36    481
64.38    449
64.4     473
64.42    419
64.44    393
64.46    435
64.48    438
64.5     566
64.52    573
64.54    617
64.56    608
64.58    604
64.6     673
64.62    650
64.64    641
64.66    769
64.68    909
64.7     1314
64.72    1841
64.74    2510
64.76    3219
64.78    3879
64.8     4460
64.82    4820
64.84    4864
64.86    4783
64.88    4507
64.9     4205
64.92    3903
64.94    3529
64.96    3052
64.98    2579
65.0     2115
65.02    1691
65.04    1336
65.06    1134
65.08    984
65.1     793
65.12    699
65.14    586
65.16    545
65.18    527
65.2     452
65.22    426
65.24    406
65.26    389
65.28    430
65.3     411
65.32    438
65.34    451
65.36    526
65.38    523
65.4     531
65.42    517
65.44    487
65.46    436
65.48    460
65.5     419
65.52    393
65.54    296
65.56    261
65.58    200
65.6     240
65.62    237
65.64    303
65.66    316
65.68    388
65.7     426
65.72    489
65.74    494
65.76    524
65.78    511
65.8     567
65.82    511
65.84    492
65.86    437
65.88    410
65.9     324
65.92    250
65.94    230
65.96    246
65.98    212
66.0     235
66.02    240
66.04    302
66.06    359
66.08    436
66.1     465
66.12    440
66.14    502
66.16    526
66.18    463
66.2     399
66.22    435
66.24    372
66.26    350
66.28    378
66.3     389
66.32    360
66.34    413
66.36    477
66.38    483
66.4     460
66.42    486
66.44    442
66.46    390
66.48    341
66.5     290
66.52    227
66.54    183
66.56    183
66.58    150
66.6     142
66.62    176
66.64    301
66.66    398
66.68    431
66.7     474
66.72    492
66.74    493
66.76    511
66.78    454
66.8     378
66.82    302
66.84    306
66.86    326
66.88    292
66.9     312
66.92    366
66.94    381
66.96    380
66.98    349
67.0     350
67.02    362
67.04    423
67.06    478
67.08    481
67.1     535
67.12    572
67.14    581
67.16    519
67.18    505
67.2     468
67.22    455
67.24    375
67.26    334
67.28    254
67.3     231
67.32    231
67.34    224
67.36    276
67.38    371
67.4     452
67.42    551
67.44    531
67.46    540
67.48    497
67.5     474
67.52    413
67.54    344
67.56    396
67.58    372
67.6     397
67.62    373
67.64    393
67.66    380
67.68    381
67.7     380
67.72    382
67.74    414
67.76    436
67.78    394
67.8     415
67.82    441
67.84    478
67.86    399
67.88    328
67.9     283
67.92    278
67.94    225
67.96    261
67.98    304
68.0     389
68.02    460
68.04    461
68.06    425
68.08    447
68.1     509
68.12    493
68.14    464
68.16    471
68.18    465
68.2     457
68.22    429
68.24    389
68.26    409
68.28    429
68.3     500
68.32    518
68.34    542
68.36    483
68.38    517
68.4     539
68.42    520
68.44    461
68.46    469
68.48    453
68.5     439
68.52    445
68.54    452
68.56    397
68.58    455
68.6     537
68.62    552
68.64    532
68.66    516
68.68    526
68.7     507
68.72    519
68.74    539
68.76    537
68.78    637
68.8     868
68.82    1242
68.84    1844
68.86    2626
68.88    3605
68.9     4672
68.92    5700
68.94    6471
68.96    6767
68.98    6521
69.0     5808
69.02    4796
69.04    3730
69.06    2625
69.08    1796
69.1     1202
69.12    913
69.14    736
69.16    662
69.18    589
69.2     556
69.22    508
69.24    542
69.26    530
69.28    547
69.3     536
69.32    530
69.34    518
69.36    510
69.38    465
69.4     416
69.42    362
69.44    324
69.46    258
69.48    212
69.5     205
69.52    202
69.54    261
69.56    278
69.58    309
69.6     355
69.62    417
69.64    511
69.66    574
69.68    590
69.7     563
69.72    536
69.74    507
69.76    460
69.78    418
69.8     381
69.82    370
69.84    328
69.86    253
69.88    216
69.9     206
69.92    170
69.94    202
69.96    214
69.98    240
70.0     318
70.02    421
70.04    461
70.06    535
70.08    623
70.1     637
70.12    606
70.14    637
70.16    614
70.18    611
70.2     594
70.22    583
70.24    594
70.26    596
70.28    612
70.3     612
70.32    618
70.34    743
70.36    868
70.38    970
70.4     1067
70.42    1249
70.44    1415
70.46    1552
70.48    1697
70.5     1805
70.52    1962
70.54    2097
70.56    2234
70.58    2287
70.6     2344
70.62    2321
70.64    2171
70.66    1909
70.68    1588
70.7     1230
70.72    962
70.74    710
70.76    603
70.78    513
70.8     561
70.82    557
70.84    541
70.86    451
70.88    405
70.9     399
70.92    373
70.94    411
70.96    465
70.98    533
71.0     561
71.02    541
71.04    471
71.06    369
71.08    303
71.1     275
71.12    227
71.14    245
71.16    280
71.18    295
71.2     280
71.22    318
71.24    341
71.26    362
71.28    402
71.3     462
71.32    487
71.34    463
71.36    467
71.38    460
71.4     417
71.42    382
71.44    352
71.46    355
71.48    325
71.5     284
71.52    275
71.54    328
71.56    357
71.58    395
71.6     400
71.62    411
71.64    439
71.66    432
71.68    376
71.7     412
71.72    449
71.74    483
71.76    437
71.78    433
71.8     417
71.82    418
71.84    382
71.86    382
71.88    394
71.9     414
71.92    374
71.94    358
71.96    299
71.98    322
72.0     306
72.02    337
72.04    367
72.06    429
72.08    475
72.1     461
72.12    461
72.14    528
72.16    515
72.18    541
72.2     514
72.22    513
72.24    469
72.26    448
72.28    458
72.3     421
72.32    426
72.34    513
72.36    586
72.38    720
72.4     1007
72.42    1516
72.44    2306
72.46    3373
72.48    4525
72.5     5617
72.52    6494
72.54    7140
72.56    7291
72.58    6987
72.6     6237
72.62    5293
72.64    4359
72.66    3419
72.68    2564
72.7     1897
72.72    1352
72.74    1097
72.76    889
72.78    799
72.8     685
72.82    756
72.84    830
72.86    837
72.88    811
72.9     743
72.92    639
72.94    525
72.96    418
72.98    412
73.0     455
73.02    545
73.04    509
73.06    527
73.08    515
73.1     497
73.12    496
73.14    450
73.16    458
73.18    501
73.2     493
73.22    476
73.24    432
73.26    453
73.28    383
73.3     413
73.32    484
73.34    574
73.36    646
73.38    739
73.4     830
73.42    954
73.44    1027
73.46    1026
73.48    985
73.5     1107
73.52    1135
73.54    1115
73.56    1052
73.58    1069
73.6     1106
73.62    1114
73.64    1059
73.66    969
73.68    855
73.7     791
73.72    592
73.74    439
73.76    338
73.78    340
73.8     346
73.82    362
73.84    402
73.86    417
73.88    341
73.9     304
73.92    301
73.94    368
73.96    396
73.98    448
74.0     479
74.02    485
74.04    582
74.06    638
74.08    620
74.1     625
74.12    719
74.14    901
74.16    1027
74.18    1257
74.2     1497
74.22    1689
74.24    1981
74.26    2076
74.28    2036
74.3     2004
74.32    2037
74.34    2039
74.36    1954
74.38    1956
74.4     1936
74.42    1914
74.44    1847
74.46    1647
74.48    1515
74.5     1389
74.52    1247
74.54    997
74.56    860
74.58    833
74.6     786
74.62    757
74.64    722
74.66    862
74.68    1083
74.7     1307
74.72    1567
74.74    1866
74.76    2344
74.78    2771
74.8     3093
74.82    3283
74.84    3333
74.86    3273
74.88    2994
74.9     2565
74.92    2096
74.94    1616
74.96    1283
74.98    953
75.0     749
75.02    570
75.04    464
75.06    416
75.08    400
75.1     395
75.12    458
75.14    477
75.16    606
75.18    628
75.2     684
75.22    684
75.24    764
75.26    797
75.28    789
75.3     763
75.32    726
75.34    666
75.36    657
75.38    512
75.4     488
75.42    471
75.44    470
75.46    432
75.48    347
75.5     302
75.52    319
75.54    301
75.56    281
75.58    244
75.6     323
75.62    310
75.64    269
75.66    306
75.68    325
75.7     390
75.72    457
75.74    419
75.76    450
75.78    517
75.8     505
75.82    371
75.84    321
75.86    302
75.88    342
75.9     365
75.92    337
75.94    331
75.96    412
75.98    445
76.0     426
76.02    379
76.04    368
76.06    353
76.08    379
76.1     384
76.12    374
76.14    415
76.16    392
76.18    359
76.2     409
76.22    418
76.24    384
76.26    396
76.28    411
76.3     423
76.32    426
76.34    431
76.36    344
76.38    318
76.4     417
76.42    396
76.44    371
76.46    361
76.48    345
76.5     300
76.52    253
76.54    223
76.56    205
76.58    275
76.6     372
76.62    368
76.64    443
76.66    478
76.68    484
76.7     484
76.72    419
76.74    395
76.76    408
76.78    434
76.8     361
76.82    326
76.84    381
76.86    376
76.88    352
76.9     361
76.92    338
76.94    363
76.96    355
76.98    355
77.0     323
77.02    342
77.04    405
77.06    431
77.08    502
77.1     532
77.12    541
77.14    556
77.16    514
77.18    497
77.2     513
77.22    555
77.24    597
77.26    623
77.28    641
77.3     540
77.32    541
77.34    551
77.36    581
77.38    696
77.4     860
77.42    1222
77.44    1683
77.46    2370
77.48    3253
77.5     4164
77.52    4975
77.54    5609
77.56    5994
77.58    6117
77.6     5968
77.62    5792
77.64    5482
77.66    5233
77.68    5024
77.7     4748
77.72    4287
77.74    3806
77.76    3194
77.78    2565
77.8     1989
77.82    1601
77.84    1231
77.86    984
77.88    873
77.9     848
77.92    827
77.94    816
77.96    742
77.98    644
78.0     586
78.02    610
78.04    530
78.06    489
78.08    475
78.1     496
78.12    437
78.14    434
78.16    405
78.18    356
78.2     383
78.22    422
78.24    411
78.26    479
78.28    544
78.3     564
78.32    535
78.34    527
78.36    515
78.38    422
78.4     414
78.42    370
78.44    302
78.46    310
78.48    297
78.5     275
78.52    244
78.54    243
78.56    257
78.58    238
78.6     256
78.62    244
78.64    223
78.66    317
78.68    397
78.7     405
78.72    397
78.74    463
78.76    486
78.78    457
78.8     442
78.82    403
78.84    403
78.86    425
78.88    449
78.9     397
78.92    413
78.94    490
78.96    509
78.98    505
79.0     535
79.02    493
79.04    476
79.06    428
79.08    419
79.1     390
79.12    380
79.14    435
79.16    437
79.18    402
79.2     392
79.22    372
79.24    349
79.26    362
79.28    422
79.3     490
79.32    477
79.34    518
79.36    530
79.38    503
79.4     523
79.42    533
79.44    559
79.46    615
79.48    649
79.5     576
79.52    490
79.54    419
79.56    375
79.58    317
79.6     268
79.62    264
79.64    274
79.66    309
79.68    285
79.7     246
79.72    291
79.74    341
79.76    341
79.78    381
79.8     399
79.82    386
79.84    412
79.86    481
79.88    471
79.9     482
79.92    540
79.94    597
79.96    558
79.98    625
80.0     660
80.02    664
80.04    687
80.06    756
80.08    663
80.1     583
80.12    615
80.14    552
80.16    448
80.18    433
80.2     428
80.22    449
80.24    491
80.26    494
80.28    442
80.3     424
80.32    493
80.34    444
80.36    395
80.38    404
80.4     441
80.42    482
80.44    460
80.46    388
80.48    382
80.5     399
80.52    432
80.54    460
80.56    397
80.58    398
80.6     357
80.62    287
80.64    178
80.66    135
80.68    182
80.7     267
80.72    338
80.74    356
80.76    302
80.78    343
80.8     337
80.82    284
80.84    213
80.86    240
80.88    307
80.9     329
80.92    313
80.94    268
80.96    232
80.98    294
81.0     313
81.02    256
81.04    289
81.06    372
81.08    416
81.1     352
81.12    361
81.14    354
81.16    332
81.18    356
81.2     360
81.22    305
81.24    365
81.26    366
81.28    308
81.3     244
81.32    298
81.34    330
81.36    373
81.38    384
81.4     447
81.42    419
81.44    408
81.46    340
81.48    225
81.5     213
81.52    215
81.54    228
81.56    251
81.58    241
81.6     320
81.62    324
81.64    297
81.66    250
81.68    211
81.7     239
81.72    265
81.74    243
81.76    184
81.78    143
81.8     177
81.82    208
81.84    182
81.86    165
81.88    146
81.9     199
81.92    262
81.94    309
81.96    298
81.98    330
82.0     398
82.02    422
82.04    366
82.06    319
82.08    262
82.1     321
82.12    362
82.14    419
82.16    433
82.18    455
82.2     424
82.22    414
82.24    371
82.26    369
82.28    402
82.3     423
82.32    436
82.34    397
82.36    346
82.38    322
82.4     235
82.42    182
82.44    177
82.46    250
82.48    330
82.5     371
82.52    394
82.54    361
82.56    374
82.58    397
82.6     383
82.62    372
82.64    358
82.66    417
82.68    410
82.7     348
82.72    327
82.74    284
82.76    300
82.78    329
82.8     315
82.82    310
82.84    314
82.86    412
82.88    389
82.9     380
82.92    423
82.94    435
82.96    479
82.98    445
83.0     329
83.02    273
83.04    319
83.06    317
83.08    263
83.1     233
83.12    275
83.14    303
83.16    316
83.18    260
83.2     269
83.22    324
83.24    384
83.26    420
83.28    408
83.3     391
83.32    437
83.34    429
83.36    383
83.38    323
83.4     347
83.42    346
83.44    343
83.46    315
83.48    278
83.5     244
83.52    289
83.54    296
83.56    285
83.58    294
83.6     322
83.62    342
83.64    337
83.66    241
83.68    210
83.7     230
83.72    319
83.74    319
83.76    385
83.78    483
83.8     530
83.82    548
83.84    513
83.86    379
83.88    291
83.9     345
83.92    390
83.94    372
83.96    363
83.98    368
84.0     352
84.02    315
84.04    204
84.06    108
84.08    69
84.1     158
84.12    232
84.14    296
84.16    310
84.18    314
84.2     349
84.22    316
84.24    269
84.26    295
84.28    294
84.3     349
84.32    364
84.34    387
84.36    375
84.38    331
84.4     236
84.42    181
84.44    206
84.46    226
84.48    263
84.5     293
84.52    295
84.54    339
84.56    392
84.58    414
84.6     357
84.62    356
84.64    374
84.66    438
84.68    477
84.7     550
84.72    670
84.74    755
84.76    826
84.78    832
84.8     742
84.82    611
84.84    558
84.86    532
84.88    492
84.9     467
84.92    438
84.94    423
84.96    417
84.98    384
85.0     372
85.02    349
85.04    398
85.06    396
85.08    447
85.1     380
85.12    400
85.14    402
85.16    412
85.18    436
85.2     423
85.22    370
85.24    340
85.26    232
85.28    232
85.3     163
85.32    236
85.34    260
85.36    324
85.38    380
85.4     368
85.42    382
85.44    320
85.46    279
85.48    276
85.5     273
85.52    376
85.54    376
85.56    348
85.58    335
85.6     312
85.62    313
85.64    267
85.66    315
85.68    311
85.7     333
85.72    352
85.74    346
85.76    295
85.78    241
85.8     255
85.82    290
85.84    288
85.86    302
85.88    277
85.9     324
85.92    386
85.94    431
85.96    382
85.98    353
86.0     392
86.02    368
86.04    345
86.06    373
86.08    343
86.1     368
86.12    389
86.14    325
86.16    274
86.18    243
86.2     269
86.22    313
86.24    365
86.26    447
86.28    467
86.3     544
86.32    652
86.34    713
86.36    913
86.38    1072
86.4     1273
86.42    1459
86.44    1480
86.46    1480
86.48    1459
86.5     1405
86.52    1394
86.54    1301
86.56    1280
86.58    1112
86.6     1000
86.62    918
86.64    765
86.66    646
86.68    517
86.7     395
86.72    409
86.74    333
86.76    287
86.78    179
86.8     125
86.82    172
86.84    222
86.86    297
86.88    285
86.9     308
86.92    396
86.94    456
86.96    503
86.98    499
87.0     499
87.02    545
87.04    617
87.06    667
87.08    656
87.1     634
87.12    635
87.14    553
87.16    474
87.18    417
87.2     326
87.22    193
87.24    142
87.26    114
87.28    113
87.3     161
87.32    144
87.34    103
87.36    164
87.38    228
87.4     231
87.42    242
87.44    280
87.46    348
87.48    418
87.5     460
87.52    436
87.54    432
87.56    420
87.58    400
87.6     462
87.62    521
87.64    539
87.66    561
87.68    552
87.7     537
87.72    527
87.74    409
87.76    330
87.78    316
87.8     345
87.82    361
87.84    401
87.86    421
87.88    336
87.9     370
87.92    416
87.94    379
87.96    377
87.98    403
88.0     415
88.02    494
88.04    511
88.06    481
88.08    388
88.1     448
88.12    445
88.14    387
88.16    382
88.18    402
88.2     353
88.22    371
88.24    397
88.26    412
88.28    416
88.3     337
88.32    321
88.34    300
88.36    296
88.38    245
88.4     185
88.42    201
88.44    265
88.46    221
88.48    220
88.5     176
88.52    255
88.54    296
88.56    345
88.58    424
88.6     424
88.62    449
88.64    426
88.66    367
88.68    330
88.7     294
88.72    294
88.74    360
88.76    431
88.78    491
88.8     411
88.82    407
88.84    360
88.86    313
88.88    307
88.9     319
88.92    407
88.94    491
88.96    595
88.98    604
89.0     530
89.02    379
89.04    260
89.06    156
89.08    180
89.1     158
89.12    240
89.14    369
89.16    467
89.18    476
89.2     425
89.22    344
89.24    297
89.26    325
89.28    388
89.3     460
89.32    544
89.34    614
89.36    503
89.38    484
89.4     434
89.42    381
89.44    314
89.46    348
89.48    417
89.5     428
89.52    378
89.54    309
89.56    234
89.58    298
89.6     276
89.62    242
89.64    262
89.66    302
89.68    369
89.7     286
89.72    177
89.74    185
89.76    188
89.78    242
89.8     258
89.82    300
89.84    394
89.86    408
89.88    425
89.9     374
89.92    362
89.94    355
89.96    312
89.98    336
90.0     387
