?
5.0      1071
5.02     1071
5.04     1393
5.06     1369
5.08     1356
5.1      1357
5.12     1304
5.14     1301
5.16     1304
5.18     1298
5.2      1309
5.22     1348
5.24     1346
5.26     1323
5.28     1301
5.3      1289
5.32     1299
5.34     1331
5.36     1346
5.38     1378
5.4      1401
5.42     1429
5.44     1429
5.46     1414
5.48     1367
5.5      1365
5.52     1371
5.54     1365
5.56     1372
5.58     1393
5.6      1385
5.62     1373
5.64     1401
5.66     1381
5.68     1373
5.7      1389
5.72     1404
5.74     1413
5.76     1420
5.78     1428
5.8      1417
5.82     1444
5.84     1457
5.86     1474
5.88     1519
5.9      1524
5.92     1506
5.94     1511
5.96     1493
5.98     1469
6.0      1464
6.02     1500
6.04     1489
6.06     1518
6.08     1510
6.1      1466
6.12     1457
6.14     1476
6.16     1435
6.18     1427
6.2      1441
6.22     1471
6.24     1500
6.26     1474
6.28     1486
6.3      1491
6.32     1521
6.34     1544
6.36     1500
6.38     1500
6.4      1457
6.42     1485
6.44     1504
6.46     1496
6.48     1508
6.5      1490
6.52     1508
6.54     1500
6.56     1460
6.58     1432
6.6      1429
6.62     1460
6.64     1462
6.66     1486
6.68     1447
6.7      1469
6.72     1493
6.74     1454
6.76     1454
6.78     1480
6.8      1487
6.82     1497
6.84     1508
6.86     1500
6.88     1483
6.9      1522
6.92     1468
6.94     1465
6.96     1459
6.98     1451
7.0      1463
7.02     1478
7.04     1476
7.06     1496
7.08     1502
7.1      1542
7.12     1523
7.14     1561
7.16     1541
7.18     1510
7.2      1525
7.22     1482
7.24     1443
7.26     1438
7.28     1419
7.3      1411
7.32     1424
7.34     1416
7.36     1402
7.38     1446
7.4      1450
7.42     1455
7.44     1508
7.46     1512
7.48     1518
7.5      1488
7.52     1509
7.54     1472
7.56     1493
7.58     1515
7.6      1480
7.62     1491
7.64     1505
7.66     1471
7.68     1437
7.7      1409
7.72     1383
7.74     1418
7.76     1450
7.78     1468
7.8      1473
7.82     1501
7.84     1461
7.86     1442
7.88     1433
7.9      1410
7.92     1421
7.94     1454
7.96     1470
7.98     1454
8.0      1445
8.02     1455
8.04     1377
8.06     1357
8.08     1362
8.1      1360
8.12     1445
8.14     1447
8.16     1475
8.18     1390
8.2      1401
8.22     1359
8.24     1276
8.26     1245
8.28     1234
8.3      1313
8.32     1365
8.34     1405
8.36     1439
8.38     1382
8.4      1429
8.42     1329
8.44     1280
8.46     1230
8.48     1248
8.5      1261
8.52     1222
8.54     1237
8.56     1265
8.58     1276
8.6      1333
8.62     1281
8.64     1327
8.66     1354
8.68     1409
8.7      1398
8.72     1380
8.74     1379
8.76     1415
8.78     1393
8.8      1375
8.82     1320
8.84     1338
8.86     1335
8.88     1329
8.9      1328
8.92     1338
8.94     1363
8.96     1321
8.98     1237
9.0      1205
9.02     1171
9.04     1134
9.06     1136
9.08     1156
9.1      1176
9.12     1248
9.14     1268
9.16     1235
9.18     1231
9.2      1238
9.22     1202
9.24     1185
9.26     1173
9.28     1184
9.3      1206
9.32     1215
9.34     1266
9.36     1230
9.38     1262
9.4      1232
9.42     1203
9.44     1163
9.46     1134
9.48     1126
9.5      1119
9.52     1128
9.54     1122
9.56     1066
9.58     1084
9.6      1076
9.62     1053
9.64     1015
9.66     1040
9.68     1045
9.7      1029
9.72     1047
9.74     993
9.76     1066
9.78     1073
9.8      1093
9.82     1092
9.84     1074
9.86     1058
9.88     1085
9.9      985
9.92     966
9.94     947
9.96     1004
9.98     988
10.0     988
10.02    1005
10.04    954
10.06    960
10.08    978
10.1     919
10.12    939
10.14    960
10.16    1057
10.18    1081
10.2     1095
10.22    1101
10.24    1047
10.26    1037
10.28    1004
10.3     912
10.32    898
10.34    924
10.36    954
10.38    962
10.4     952
10.42    974
10.44    968
10.46    928
10.48    960
10.5     944
10.52    950
10.54    971
10.56    1013
10.58    999
10.6     950
10.62    982
10.64    970
10.66    1009
10.68    1056
10.7     973
10.72    905
10.74    908
10.76    908
10.78    824
10.8     837
10.82    859
10.84    938
10.86    1029
10.88    998
10.9     967
10.92    998
10.94    1031
10.96    1016
10.98    1012
11.0     1083
11.02    1106
11.04    1100
11.06    1084
11.08    1043
11.1     1010
11.12    1027
11.14    980
11.16    970
11.18    986
11.2     1012
11.22    1033
11.24    1008
11.26    1046
11.28    1062
11.3     1029
11.32    1087
11.34    1057
11.36    1059
11.38    1033
11.4     1022
11.42    967
11.44    987
11.46    980
11.48    962
11.5     983
11.52    1033
11.54    1045
11.56    1073
11.58    1093
11.6     1095
11.62    1025
11.64    1060
11.66    1036
11.68    1014
11.7     1066
11.72    1060
11.74    1079
11.76    1095
11.78    1110
11.8     1076
11.82    1067
11.84    1059
11.86    1101
11.88    1112
11.9     1116
11.92    1047
11.94    1087
11.96    1056
11.98    1040
12.0     1040
12.02    1032
12.04    1023
12.06    1117
12.08    1098
12.1     1030
12.12    988
12.14    1027
12.16    1016
12.18    1062
12.2     1059
12.22    1008
12.24    1064
12.26    1110
12.28    1097
12.3     1060
12.32    1050
12.34    1052
12.36    1133
12.38    1144
12.4     1081
12.42    1107
12.44    1167
12.46    1143
12.48    1139
12.5     1119
12.52    1049
12.54    1043
12.56    1066
12.58    1089
12.6     1088
12.62    1100
12.64    1079
12.66    1079
12.68    1115
12.7     1098
12.72    1076
12.74    1099
12.76    1063
12.78    1110
12.8     1118
12.82    1142
12.84    1156
12.86    1146
12.88    1173
12.9     1166
12.92    1224
12.94    1233
12.96    1161
12.98    1196
13.0     1246
13.02    1280
13.04    1254
13.06    1192
13.08    1187
13.1     1180
13.12    1175
13.14    1173
13.16    1098
13.18    1105
13.2     1084
13.22    1111
13.24    1108
13.26    1099
13.28    1102
13.3     1094
13.32    1100
13.34    1177
13.36    1212
13.38    1205
13.4     1201
13.42    1273
13.44    1325
13.46    1332
13.48    1304
13.5     1321
13.52    1344
13.54    1421
13.56    1385
13.58    1286
13.6     1269
13.62    1249
13.64    1229
13.66    1205
13.68    1192
13.7     1292
13.72    1349
13.74    1394
13.76    1369
13.78    1416
13.8     1388
13.82    1297
13.84    1312
13.86    1284
13.88    1302
13.9     1334
13.92    1288
13.94    1283
13.96    1286
13.98    1275
14.0     1218
14.02    1229
14.04    1282
14.06    1260
14.08    1365
14.1     1394
14.12    1335
14.14    1387
14.16    1365
14.18    1306
14.2     1322
14.22    1323
14.24    1308
14.26    1336
14.28    1389
14.3     1439
14.32    1431
14.34    1484
14.36    1495
14.38    1472
14.4     1460
14.42    1407
14.44    1399
14.46    1385
14.48    1399
14.5     1392
14.52    1350
14.54    1334
14.56    1350
14.58    1335
14.6     1355
14.62    1377
14.64    1384
14.66    1443
14.68    1504
14.7     1509
14.72    1519
14.74    1498
14.76    1534
14.78    1522
14.8     1507
14.82    1480
14.84    1454
14.86    1496
14.88    1511
14.9     1571
14.92    1674
14.94    1673
14.96    1646
14.98    1631
15.0     1617
15.02    1513
15.04    1446
15.06    1405
15.08    1376
15.1     1327
15.12    1400
15.14    1412
15.16    1342
15.18    1383
15.2     1440
15.22    1414
15.24    1461
15.26    1459
15.28    1429
15.3     1358
15.32    1389
15.34    1410
15.36    1386
15.38    1432
15.4     1511
15.42    1546
15.44    1544
15.46    1476
15.48    1422
15.5     1366
15.52    1370
15.54    1361
15.56    1377
15.58    1422
15.6     1412
15.62    1407
15.64    1426
15.66    1420
15.68    1437
15.7     1482
15.72    1511
15.74    1500
15.76    1558
15.78    1644
15.8     1619
15.82    1636
15.84    1654
15.86    1660
15.88    1669
15.9     1707
15.92    1810
15.94    1905
15.96    2003
15.98    2118
16.0     2164
16.02    2164
16.04    2092
16.06    2145
16.08    2189
16.1     2298
16.12    2539
16.14    2642
16.16    2770
16.18    3060
16.2     3335
16.22    3516
16.24    3830
16.26    4368
16.28    4954
16.3     5681
16.32    6596
16.34    7606
16.36    9006
16.38    10879
16.4     13053
16.42    15870
16.44    20005
16.46    26054
16.48    34746
16.5     45989
16.52    57746
16.54    66254
16.56    68840
16.58    64905
16.6     55194
16.62    41731
16.64    27171
16.66    14349
16.68    5751
16.7     2150
16.72    2039
16.74    2724
16.76    3007
16.78    2894
16.8     2649
16.82    2471
16.84    2391
16.86    2240
16.88    2057
16.9     1954
16.92    1960
16.94    2019
16.96    1995
16.98    1872
17.0     1864
17.02    1873
17.04    1822
17.06    1720
17.08    1646
17.1     1617
17.12    1570
17.14    1586
17.16    1556
17.18    1557
17.2     1541
17.22    1513
17.24    1481
17.26    1557
17.28    1643
17.3     1568
17.32    1461
17.34    1441
17.36    1490
17.38    1476
17.4     1429
17.42    1435
17.44    1479
17.46    1502
17.48    1472
17.5     1391
17.52    1363
17.54    1345
17.56    1335
17.58    1235
17.6     1178
17.62    1149
17.64    1144
17.66    1153
17.68    1208
17.7     1292
17.72    1379
17.74    1365
17.76    1346
17.78    1329
17.8     1301
17.82    1257
17.84    1164
17.86    1159
17.88    1138
17.9     1113
17.92    1068
17.94    951
17.96    969
17.98    1063
18.0     1145
18.02    1136
18.04    1115
18.06    1117
18.08    1199
18.1     1162
18.12    1072
18.14    1078
18.16    1157
18.18    1161
18.2     1113
18.22    1072
18.24    1011
18.26    988
18.28    1074
18.3     1024
18.32    964
18.34    1043
18.36    1060
18.38    1020
18.4     935
18.42    942
18.44    896
18.46    896
18.48    896
18.5     900
18.52    854
18.54    895
18.56    889
18.58    893
18.6     920
18.62    994
18.64    1048
18.66    1053
18.68    1010
18.7     964
18.72    953
18.74    953
18.76    875
18.78    852
18.8     903
18.82    985
18.84    1030
18.86    1008
18.88    964
18.9     893
18.92    915
18.94    917
18.96    862
18.98    901
19.0     951
19.02    1054
19.04    1061
19.06    1026
19.08    987
19.1     904
19.12    892
19.14    908
19.16    876
19.18    915
19.2     904
19.22    883
19.24    828
19.26    792
19.28    785
19.3     791
19.32    846
19.34    908
19.36    867
19.38    897
19.4     887
19.42    846
19.44    792
19.46    756
19.48    759
19.5     774
19.52    820
19.54    853
19.56    838
19.58    901
19.6     947
19.62    907
19.64    832
19.66    757
19.68    733
19.7     733
19.72    773
19.74    797
19.76    751
19.78    736
19.8     726
19.82    699
19.84    725
19.86    711
19.88    755
19.9     805
19.92    866
19.94    848
19.96    791
19.98    759
20.0     718
20.02    684
20.04    663
20.06    664
20.08    715
20.1     764
20.12    774
20.14    751
20.16    792
20.18    812
20.2     815
20.22    760
20.24    688
20.26    748
20.28    822
20.3     857
20.32    813
20.34    764
20.36    763
20.38    766
20.4     750
20.42    690
20.44    695
20.46    771
20.48    807
20.5     875
20.52    882
20.54    869
20.56    865
20.58    829
20.6     786
20.62    723
20.64    755
20.66    750
20.68    727
20.7     774
20.72    783
20.74    794
20.76    799
20.78    779
20.8     719
20.82    707
20.84    700
20.86    692
20.88    661
20.9     649
20.92    648
20.94    622
20.96    635
20.98    703
21.0     762
21.02    787
21.04    709
21.06    723
21.08    740
21.1     780
21.12    776
21.14    733
21.16    727
21.18    797
21.2     816
21.22    751
21.24    674
21.26    663
21.28    708
21.3     729
21.32    721
21.34    749
21.36    742
21.38    769
21.4     771
21.42    774
21.44    754
21.46    727
21.48    706
21.5     676
21.52    648
21.54    644
21.56    595
21.58    531
21.6     544
21.62    603
21.64    642
21.66    669
21.68    654
21.7     699
21.72    693
21.74    725
21.76    698
21.78    704
21.8     741
21.82    740
21.84    731
21.86    672
21.88    616
21.9     631
21.92    615
21.94    612
21.96    633
21.98    698
22.0     733
22.02    725
22.04    721
22.06    703
22.08    701
22.1     697
22.12    639
22.14    599
22.16    579
22.18    515
22.2     547
22.22    574
22.24    612
22.26    670
22.28    655
22.3     672
22.32    689
22.34    636
22.36    601
22.38    494
22.4     525
22.42    598
22.44    661
22.46    656
22.48    672
22.5     690
22.52    720
22.54    671
22.56    633
22.58    564
22.6     559
22.62    550
22.64    579
22.66    571
22.68    654
22.7     709
22.72    729
22.74    704
22.76    647
22.78    643
22.8     659
22.82    635
22.84    591
22.86    520
22.88    526
22.9     547
22.92    507
22.94    521
22.96    539
22.98    559
23.0     610
23.02    664
23.04    662
23.06    650
23.08    653
23.1     638
23.12    582
23.14    573
23.16    520
23.18    500
23.2     529
23.22    620
23.24    646
23.26    664
23.28    605
23.3     481
23.32    387
23.34    433
23.36    483
23.38    581
23.4     611
23.42    630
23.44    610
23.46    585
23.48    560
23.5     475
23.52    483
23.54    568
23.56    594
23.58    547
23.6     500
23.62    519
23.64    539
23.66    548
23.68    574
23.7     504
23.72    518
23.74    555
23.76    533
23.78    535
23.8     523
23.82    566
23.84    574
23.86    599
23.88    573
23.9     586
23.92    654
23.94    673
23.96    614
23.98    628
24.0     550
24.02    498
24.04    501
24.06    562
24.08    575
24.1     612
24.12    613
24.14    583
24.16    562
24.18    534
24.2     516
24.22    481
24.24    562
24.26    614
24.28    616
24.3     608
24.32    592
24.34    554
24.36    535
24.38    509
24.4     560
24.42    549
24.44    525
24.46    497
24.48    465
24.5     497
24.52    472
24.54    395
24.56    357
24.58    406
24.6     468
24.62    531
24.64    529
24.66    563
24.68    598
24.7     671
24.72    650
24.74    628
24.76    617
24.78    651
24.8     607
24.82    583
24.84    518
24.86    484
24.88    436
24.9     442
24.92    457
24.94    564
24.96    598
24.98    557
25.0     492
25.02    472
25.04    456
25.06    481
25.08    476
25.1     507
25.12    530
25.14    585
25.16    582
25.18    555
25.2     575
25.22    562
25.24    539
25.26    473
25.28    510
25.3     508
25.32    506
25.34    509
25.36    524
25.38    516
25.4     493
25.42    449
25.44    413
25.46    318
25.48    387
25.5     407
25.52    467
25.54    526
25.56    572
25.58    591
25.6     580
25.62    596
25.64    576
25.66    502
25.68    443
25.7     396
25.72    503
25.74    581
25.76    614
25.78    559
25.8     524
25.82    538
25.84    526
25.86    575
25.88    517
25.9     523
25.92    571
25.94    569
25.96    528
25.98    429
26.0     385
26.02    377
26.04    367
26.06    391
26.08    375
26.1     355
26.12    357
26.14    416
26.16    424
26.18    449
26.2     432
26.22    450
26.24    483
26.26    501
26.28    523
26.3     465
26.32    438
26.34    405
26.36    375
26.38    436
26.4     409
26.42    488
26.44    524
26.46    505
26.48    504
26.5     449
26.52    450
26.54    462
26.56    453
26.58    511
26.6     507
26.62    549
26.64    503
26.66    422
26.68    389
26.7     367
26.72    424
26.74    389
26.76    413
26.78    448
26.8     458
26.82    453
26.84    397
26.86    350
26.88    329
26.9     378
26.92    400
26.94    432
26.96    549
26.98    548
27.0     542
27.02    484
27.04    463
27.06    509
27.08    530
27.1     579
27.12    563
27.14    532
27.16    538
27.18    503
27.2     505
27.22    461
27.24    535
27.26    533
27.28    471
27.3     438
27.32    365
27.34    331
27.36    386
27.38    392
27.4     482
27.42    533
27.44    569
27.46    527
27.48    505
27.5     461
27.52    383
27.54    414
27.56    444
27.58    474
27.6     554
27.62    550
27.64    516
27.66    521
27.68    546
27.7     508
27.72    451
27.74    434
27.76    418
27.78    418
27.8     419
27.82    389
27.84    376
27.86    393
27.88    451
27.9     452
27.92    423
27.94    369
27.96    348
27.98    297
28.0     317
28.02    338
28.04    403
28.06    515
28.08    529
28.1     490
28.12    447
28.14    362
28.16    354
28.18    299
28.2     339
28.22    352
28.24    437
28.26    517
28.28    458
28.3     444
28.32    412
28.34    397
28.36    464
28.38    505
28.4     564
28.42    573
28.44    596
28.46    610
28.48    513
28.5     499
28.52    455
28.54    470
28.56    462
28.58    467
28.6     399
28.62    329
28.64    321
28.66    327
28.68    324
28.7     383
28.72    421
28.74    466
28.76    445
28.78    415
28.8     377
28.82    354
28.84    394
28.86    397
28.88    450
28.9     469
28.92    489
28.94    481
28.96    467
28.98    451
29.0     452
29.02    428
29.04    430
29.06    424
29.08    452
29.1     426
29.12    445
29.14    459
29.16    399
29.18    398
29.2     390
29.22    395
29.24    486
29.26    525
29.28    543
29.3     536
29.32    549
29.34    533
29.36    428
29.38    443
29.4     431
29.42    430
29.44    467
29.46    485
29.48    496
29.5     512
29.52    484
29.54    447
29.56    433
29.58    433
29.6     451
29.62    471
29.64    513
29.66    537
29.68    513
29.7     421
29.72    333
29.74    302
29.76    288
29.78    275
29.8     348
29.82    433
29.84    470
29.86    506
29.88    536
29.9     441
29.92    442
29.94    398
29.96    361
29.98    410
30.0     418
30.02    461
30.04    472
30.06    502
30.08    558
30.1     513
30.12    509
30.14    433
30.16    424
30.18    479
30.2     492
30.22    473
30.24    422
30.26    421
30.28    430
30.3     448
30.32    433
30.34    452
30.36    492
30.38    507
30.4     475
30.42    339
30.44    284
30.46    307
30.48    316
30.5     389
30.52    427
30.54    454
30.56    504
30.58    456
30.6     371
30.62    263
30.64    239
30.66    272
30.68    337
30.7     393
30.72    438
30.74    394
30.76    423
30.78    410
30.8     402
30.82    412
30.84    456
30.86    458
30.88    500
30.9     478
30.92    447
30.94    375
30.96    392
30.98    363
31.0     397
31.02    443
31.04    479
31.06    460
31.08    520
31.1     488
31.12    519
31.14    478
31.16    444
31.18    412
31.2     379
31.22    398
31.24    428
31.26    405
31.28    411
31.3     402
31.32    378
31.34    334
31.36    361
31.38    438
31.4     464
31.42    536
31.44    538
31.46    525
31.48    508
31.5     453
31.52    377
31.54    346
31.56    326
31.58    370
31.6     394
31.62    424
31.64    473
31.66    524
31.68    562
31.7     513
31.72    466
31.74    413
31.76    395
31.78    424
31.8     444
31.82    509
31.84    463
31.86    449
31.88    450
31.9     336
31.92    353
31.94    350
31.96    360
31.98    427
32.0     470
32.02    477
32.04    413
32.06    437
32.08    462
32.1     479
32.12    527
32.14    523
32.16    450
32.18    463
32.2     444
32.22    400
32.24    494
32.26    551
32.28    617
32.3     677
32.32    622
32.34    631
32.36    556
32.38    539
32.4     560
32.42    548
32.44    614
32.46    640
32.48    591
32.5     547
32.52    492
32.54    478
32.56    491
32.58    488
32.6     506
32.62    501
32.64    541
32.66    606
32.68    539
32.7     503
32.72    458
32.74    407
32.76    433
32.78    477
32.8     540
32.82    626
32.84    670
32.86    712
32.88    641
32.9     530
32.92    476
32.94    391
32.96    347
32.98    397
33.0     434
33.02    474
33.04    473
33.06    504
33.08    572
33.1     555
33.12    635
33.14    726
33.16    740
33.18    770
33.2     827
33.22    790
33.24    792
33.26    843
33.28    952
33.3     1079
33.32    1289
33.34    1516
33.36    1741
33.38    2183
33.4     2990
33.42    4105
33.44    5754
33.46    7825
33.48    10250
33.5     12815
33.52    14959
33.54    15954
33.56    15567
33.58    13967
33.6     11463
33.62    8547
33.64    5681
33.66    3273
33.68    1796
33.7     1097
33.72    1020
33.74    959
33.76    941
33.78    878
33.8     827
33.82    841
33.84    790
33.86    733
33.88    703
33.9     619
33.92    604
33.94    580
33.96    598
33.98    504
34.0     545
34.02    623
34.04    644
34.06    632
34.08    594
34.1     629
34.12    629
34.14    656
34.16    654
34.18    630
34.2     687
34.22    749
34.24    666
34.26    596
34.28    562
34.3     569
34.32    568
34.34    639
34.36    680
34.38    705
34.4     673
34.42    674
34.44    590
34.46    612
34.48    630
34.5     717
34.52    785
34.54    832
34.56    775
34.58    692
34.6     530
34.62    471
34.64    386
34.66    425
34.68    444
34.7     513
34.72    580
34.74    564
34.76    568
34.78    597
34.8     581
34.82    565
34.84    569
34.86    637
34.88    720
34.9     782
34.92    971
34.94    1014
34.96    1152
34.98    1330
35.0     1813
35.02    2921
35.04    4864
35.06    7355
35.08    9865
35.1     11932
35.12    13250
35.14    13386
35.16    12392
35.18    10391
35.2     8015
35.22    5802
35.24    4079
35.26    2870
35.28    2004
35.3     1550
35.32    1309
35.34    1191
35.36    1073
35.38    1015
35.4     975
35.42    929
35.44    876
35.46    862
35.48    831
35.5     858
35.52    833
35.54    754
35.56    631
35.58    581
35.6     549
35.62    522
35.64    558
35.66    590
35.68    603
35.7     708
35.72    736
35.74    691
35.76    638
35.78    540
35.8     511
35.82    520
35.84    541
35.86    587
35.88    688
35.9     779
35.92    790
35.94    816
35.96    799
35.98    642
36.0     623
36.02    636
36.04    603
36.06    675
36.08    740
36.1     738
36.12    759
36.14    855
36.16    864
36.18    866
36.2     998
36.22    1088
36.24    1158
36.26    1287
36.28    1468
36.3     1662
36.32    1982
36.34    2497
36.36    3551
36.38    6020
36.4     10311
36.42    15853
36.44    21596
36.46    26417
36.48    29294
36.5     29606
36.52    27230
36.54    22557
36.56    16746
36.58    11380
36.6     7303
36.62    4494
36.64    2767
36.66    1820
36.68    1335
36.7     1177
36.72    1153
36.74    1115
36.76    1057
36.78    1029
36.8     951
36.82    861
36.84    857
36.86    836
36.88    836
36.9     874
36.92    875
36.94    834
36.96    808
36.98    780
37.0     759
37.02    806
37.04    952
37.06    1096
37.08    1264
37.1     1456
37.12    1505
37.14    1437
37.16    1381
37.18    1212
37.2     1024
37.22    907
37.24    886
37.26    874
37.28    962
37.3     1090
37.32    1173
37.34    1222
37.36    1307
37.38    1210
37.4     1089
37.42    910
37.44    705
37.46    484
37.48    398
37.5     382
37.52    495
37.54    592
37.56    718
37.58    758
37.6     739
37.62    616
37.64    545
37.66    457
37.68    418
37.7     483
37.72    570
37.74    649
37.76    786
37.78    875
37.8     875
37.82    810
37.84    747
37.86    629
37.88    521
37.9     517
37.92    474
37.94    507
37.96    583
37.98    657
38.0     662
38.02    600
38.04    543
38.06    485
38.08    425
38.1     437
38.12    467
38.14    553
38.16    676
38.18    736
38.2     745
38.22    683
38.24    557
38.26    421
38.28    319
38.3     288
38.32    376
38.34    481
38.36    630
38.38    673
38.4     697
38.42    652
38.44    551
38.46    415
38.48    336
38.5     310
38.52    363
38.54    441
38.56    491
38.58    515
38.6     554
38.62    496
38.64    397
38.66    339
38.68    369
38.7     373
38.72    465
38.74    573
38.76    594
38.78    645
38.8     652
38.82    516
38.84    414
38.86    388
38.88    369
38.9     360
38.92    469
38.94    569
38.96    605
38.98    643
39.0     690
39.02    603
39.04    566
39.06    509
39.08    446
39.1     435
39.12    452
39.14    472
39.16    483
39.18    531
39.2     598
39.22    561
39.24    546
39.26    512
39.28    445
39.3     397
39.32    345
39.34    330
39.36    362
39.38    410
39.4     476
39.42    539
39.44    574
39.46    637
39.48    616
39.5     627
39.52    587
39.54    569
39.56    524
39.58    483
39.6     452
39.62    480
39.64    536
39.66    557
39.68    548
39.7     669
39.72    621
39.74    622
39.76    581
39.78    530
39.8     525
39.82    528
39.84    489
39.86    418
39.88    424
39.9     451
39.92    419
39.94    480
39.96    522
39.98    605
40.0     715
40.02    767
40.04    769
40.06    846
40.08    820
40.1     821
40.12    844
40.14    787
40.16    711
40.18    701
40.2     650
40.22    627
40.24    601
40.26    680
40.28    665
40.3     811
40.32    828
40.34    810
40.36    846
40.38    868
40.4     840
40.42    805
40.44    775
40.46    763
40.48    741
40.5     773
40.52    785
40.54    845
40.56    934
40.58    966
40.6     958
40.62    946
40.64    932
40.66    907
40.68    833
40.7     767
40.72    768
40.74    802
40.76    836
40.78    862
40.8     879
40.82    994
40.84    1054
40.86    1182
40.88    1217
40.9     1270
40.92    1250
40.94    1248
40.96    1193
40.98    1174
41.0     1182
41.02    1288
41.04    1371
41.06    1472
41.08    1534
41.1     1620
41.12    1636
41.14    1655
41.16    1742
41.18    1888
41.2     2035
41.22    2256
41.24    2531
41.26    2716
41.28    3038
41.3     3462
41.32    3962
41.34    4588
41.36    5439
41.38    6527
41.4     7996
41.42    10911
41.44    17715
41.46    32488
41.48    56148
41.5     83489
41.52    107020
41.54    120779
41.56    122081
41.58    110968
41.6     89420
41.62    62099
41.64    35739
41.66    17241
41.68    8163
41.7     4966
41.72    3859
41.74    3031
41.76    2409
41.78    2097
41.8     2021
41.82    2164
41.84    2303
41.86    2370
41.88    2297
41.9     2052
41.92    1682
41.94    1374
41.96    1174
41.98    1013
42.0     1018
42.02    1098
42.04    1172
42.06    1287
42.08    1322
42.1     1308
42.12    1179
42.14    1135
42.16    1120
42.18    1075
42.2     989
42.22    978
42.24    971
42.26    975
42.28    911
42.3     899
42.32    858
42.34    869
42.36    911
42.38    918
42.4     874
42.42    869
42.44    858
42.46    860
42.48    825
42.5     879
42.52    898
42.54    938
42.56    943
42.58    911
42.6     838
42.62    735
42.64    675
42.66    675
42.68    660
42.7     697
42.72    736
42.74    873
42.76    880
42.78    838
42.8     831
42.82    786
42.84    732
42.86    715
42.88    724
42.9     725
42.92    739
42.94    866
42.96    843
42.98    796
43.0     850
43.02    899
43.04    1037
43.06    1199
43.08    1500
43.1     1778
43.12    1946
43.14    2170
43.16    2106
43.18    1972
43.2     1796
43.22    1501
43.24    1259
43.26    1036
43.28    968
43.3     834
43.32    748
43.34    787
43.36    708
43.38    681
43.4     700
43.42    710
43.44    753
43.46    750
43.48    786
43.5     700
43.52    670
43.54    647
43.56    643
43.58    634
43.6     638
43.62    732
43.64    789
43.66    778
43.68    797
43.7     721
43.72    607
43.74    540
43.76    507
43.78    495
43.8     482
43.82    597
43.84    670
43.86    683
43.88    711
43.9     673
43.92    597
43.94    512
43.96    482
43.98    480
44.0     510
44.02    581
44.04    654
44.06    714
44.08    743
44.1     793
44.12    762
44.14    688
44.16    686
44.18    657
44.2     644
44.22    644
44.24    688
44.26    651
44.28    621
44.3     616
44.32    575
44.34    560
44.36    579
44.38    613
44.4     566
44.42    592
44.44    535
44.46    438
44.48    369
44.5     346
44.52    416
44.54    441
44.56    552
44.58    667
44.6     762
44.62    879
44.64    808
44.66    757
44.68    660
44.7     552
44.72    455
44.74    388
44.76    446
44.78    506
44.8     571
44.82    648
44.84    647
44.86    684
44.88    661
44.9     626
44.92    684
44.94    909
44.96    1389
44.98    1962
45.0     2542
45.02    2940
45.04    3034
45.06    2896
45.08    2514
45.1     2012
45.12    1409
45.14    957
45.16    787
45.18    738
45.2     743
45.22    701
45.24    633
45.26    528
45.28    463
45.3     442
45.32    429
45.34    495
45.36    563
45.38    630
45.4     657
45.42    687
45.44    674
45.46    536
45.48    463
45.5     403
45.52    401
45.54    382
45.56    419
45.58    506
45.6     596
45.62    705
45.64    761
45.66    745
45.68    682
45.7     545
45.72    502
45.74    378
45.76    340
45.78    389
45.8     411
45.82    521
45.84    568
45.86    650
45.88    631
45.9     593
45.92    596
45.94    471
45.96    395
45.98    392
46.0     372
46.02    438
46.04    513
46.06    647
46.08    729
46.1     740
46.12    717
46.14    629
46.16    530
46.18    475
46.2     432
46.22    399
46.24    431
46.26    483
46.28    521
46.3     581
46.32    612
46.34    599
46.36    606
46.38    619
46.4     582
46.42    527
46.44    503
46.46    446
46.48    429
46.5     481
46.52    503
46.54    504
46.56    541
46.58    587
46.6     566
46.62    608
46.64    581
46.66    582
46.68    617
46.7     568
46.72    544
46.74    490
46.76    488
46.78    526
46.8     526
46.82    556
46.84    515
46.86    568
46.88    598
46.9     534
46.92    508
46.94    510
46.96    513
46.98    496
47.0     471
47.02    452
47.04    471
47.06    485
47.08    528
47.1     586
47.12    624
47.14    675
47.16    639
47.18    570
47.2     533
47.22    466
47.24    482
47.26    488
47.28    489
47.3     486
47.32    476
47.34    508
47.36    513
47.38    477
47.4     437
47.42    427
47.44    501
47.46    522
47.48    511
47.5     459
47.52    428
47.54    431
47.56    433
47.58    405
47.6     398
47.62    460
47.64    503
47.66    530
47.68    565
47.7     525
47.72    495
47.74    458
47.76    437
47.78    447
47.8     478
47.82    555
47.84    622
47.86    669
47.88    716
47.9     720
47.92    641
47.94    610
47.96    519
47.98    437
48.0     382
48.02    376
48.04    428
48.06    412
48.08    504
48.1     541
48.12    558
48.14    605
48.16    527
48.18    464
48.2     523
48.22    523
48.24    504
48.26    444
48.28    494
48.3     519
48.32    491
48.34    486
48.36    477
48.38    528
48.4     573
48.42    541
48.44    519
48.46    516
48.48    546
48.5     527
48.52    500
48.54    498
48.56    510
48.58    507
48.6     447
48.62    490
48.64    468
48.66    440
48.68    459
48.7     478
48.72    530
48.74    517
48.76    527
48.78    519
48.8     544
48.82    559
48.84    512
48.86    531
48.88    557
48.9     602
48.92    547
48.94    497
48.96    479
48.98    418
49.0     371
49.02    313
49.04    329
49.06    427
49.08    509
49.1     563
49.12    554
49.14    595
49.16    632
49.18    583
49.2     484
49.22    419
49.24    392
49.26    377
49.28    422
49.3     453
49.32    515
49.34    575
49.36    615
49.38    611
49.4     568
49.42    534
49.44    499
49.46    424
49.48    451
49.5     483
49.52    478
49.54    495
49.56    438
49.58    445
49.6     407
49.62    393
49.64    391
49.66    365
49.68    442
49.7     534
49.72    577
49.74    572
49.76    566
49.78    553
49.8     555
49.82    542
49.84    432
49.86    403
49.88    443
49.9     453
49.92    442
49.94    404
49.96    477
49.98    550
50.0     623
50.02    554
50.04    487
50.06    486
50.08    491
50.1     448
50.12    371
50.14    399
50.16    452
50.18    532
50.2     509
50.22    473
50.24    462
50.26    502
50.28    522
50.3     514
50.32    461
50.34    509
50.36    482
50.38    459
50.4     357
50.42    325
50.44    313
50.46    394
50.48    392
50.5     489
50.52    590
50.54    705
50.56    742
50.58    718
50.6     699
50.62    670
50.64    622
50.66    538
50.68    418
50.7     404
50.72    354
50.74    338
50.76    360
50.78    425
50.8     509
50.82    543
50.84    591
50.86    588
50.88    568
50.9     497
50.92    385
50.94    393
50.96    425
50.98    428
51.0     456
51.02    448
51.04    493
51.06    570
51.08    550
51.1     512
51.12    503
51.14    568
51.16    560
51.18    501
51.2     486
51.22    495
51.24    554
51.26    638
51.28    620
51.3     643
51.32    736
51.34    799
51.36    755
51.38    725
51.4     668
51.42    685
51.44    597
51.46    573
51.48    510
51.5     449
51.52    450
51.54    478
51.56    461
51.58    530
51.6     513
51.62    539
51.64    540
51.66    580
51.68    589
51.7     593
51.72    632
51.74    743
51.76    731
51.78    734
51.8     665
51.82    577
51.84    490
51.86    465
51.88    411
51.9     424
51.92    455
51.94    500
51.96    500
51.98    518
52.0     493
52.02    490
52.04    476
52.06    552
52.08    565
52.1     601
52.12    655
52.14    712
52.16    714
52.18    700
52.2     687
52.22    659
52.24    628
52.26    621
52.28    577
52.3     540
52.32    541
52.34    510
52.36    498
52.38    487
52.4     561
52.42    551
52.44    623
52.46    638
52.48    645
52.5     686
52.52    710
52.54    650
52.56    631
52.58    567
52.6     571
52.62    459
52.64    424
52.66    348
52.68    377
52.7     486
52.72    560
52.74    563
52.76    568
52.78    616
52.8     619
52.82    604
52.84    550
52.86    515
52.88    573
52.9     640
52.92    672
52.94    635
52.96    566
52.98    648
53.0     612
53.02    589
53.04    527
53.06    577
53.08    683
53.1     789
53.12    838
53.14    856
53.16    857
53.18    1000
53.2     999
53.22    940
53.24    876
53.26    954
53.28    1010
53.3     1062
53.32    1242
53.34    1731
53.36    2829
53.38    5093
53.4     7879
53.42    10480
53.44    12252
53.46    12851
53.48    12089
53.5     10175
53.52    7534
53.54    4754
53.56    2576
53.58    1521
53.6     1131
53.62    1101
53.64    1133
53.66    1169
53.68    1094
53.7     974
53.72    892
53.74    878
53.76    808
53.78    670
53.8     577
53.82    534
53.84    633
53.86    713
53.88    650
53.9     643
53.92    624
53.94    604
53.96    551
53.98    450
54.0     418
54.02    462
54.04    531
54.06    528
54.08    531
54.1     571
54.12    598
54.14    644
54.16    596
54.18    535
54.2     569
54.22    643
54.24    588
54.26    561
54.28    530
54.3     528
54.32    517
54.34    471
54.36    356
54.38    382
54.4     454
54.42    550
54.44    594
54.46    660
54.48    727
54.5     756
54.52    719
54.54    617
54.56    529
54.58    511
54.6     457
54.62    442
54.64    393
54.66    417
54.68    477
54.7     517
54.72    566
54.74    525
54.76    492
54.78    525
54.8     521
54.82    521
54.84    486
54.86    484
54.88    452
54.9     497
54.92    476
54.94    426
54.96    386
54.98    454
55.0     504
55.02    558
55.04    576
55.06    568
55.08    594
55.1     606
55.12    519
55.14    437
55.16    394
55.18    381
55.2     317
55.22    308
55.24    306
55.26    347
55.28    488
55.3     574
55.32    624
55.34    726
55.36    797
55.38    750
55.4     671
55.42    602
55.44    513
55.46    525
55.48    524
55.5     505
55.52    535
55.54    590
55.56    566
55.58    582
55.6     571
55.62    560
55.64    592
55.66    627
55.68    573
55.7     560
55.72    656
55.74    629
55.76    628
55.78    596
55.8     511
55.82    526
55.84    517
55.86    476
55.88    438
55.9     459
55.92    524
55.94    512
55.96    488
55.98    372
56.0     324
56.02    316
56.04    265
56.06    284
56.08    354
56.1     437
56.12    551
56.14    629
56.16    678
56.18    665
56.2     698
56.22    735
56.24    742
56.26    724
56.28    704
56.3     656
56.32    607
56.34    603
56.36    599
56.38    527
56.4     447
56.42    488
56.44    429
56.46    371
56.48    376
56.5     368
56.52    379
56.54    521
56.56    595
56.58    626
56.6     650
56.62    681
56.64    583
56.66    562
56.68    532
56.7     513
56.72    535
56.74    509
56.76    477
56.78    549
56.8     591
56.82    605
56.84    622
56.86    655
56.88    622
56.9     679
56.92    677
56.94    546
56.96    536
56.98    568
57.0     551
57.02    587
57.04    630
57.06    653
57.08    629
57.1     649
57.12    638
57.14    626
57.16    672
57.18    695
57.2     672
57.22    584
57.24    572
57.26    525
57.28    494
57.3     492
57.32    504
57.34    537
57.36    563
57.38    689
57.4     694
57.42    653
57.44    674
57.46    682
57.48    710
57.5     773
57.52    749
57.54    740
57.56    726
57.58    766
57.6     668
57.62    587
57.64    534
57.66    546
57.68    566
57.7     611
57.72    700
57.74    763
57.76    831
57.78    906
57.8     907
57.82    901
57.84    886
57.86    956
57.88    943
57.9     974
57.92    1129
57.94    1192
57.96    1306
57.98    1378
58.0     1529
58.02    1592
58.04    1758
58.06    1914
58.08    2019
58.1     2303
58.12    2826
58.14    3843
58.16    5846
58.18    9397
58.2     14582
58.22    20461
58.24    25606
58.26    28492
58.28    28655
58.3     26099
58.32    21361
58.34    15494
58.36    9801
58.38    5540
58.4     3080
58.42    2185
58.44    1896
58.46    1685
58.48    1495
58.5     1368
58.52    1319
58.54    1253
58.56    1236
58.58    1187
58.6     1013
58.62    923
58.64    843
58.66    772
58.68    696
58.7     724
58.72    717
58.74    667
58.76    713
58.78    782
58.8     735
58.82    730
58.84    725
58.86    690
58.88    728
58.9     777
58.92    672
58.94    588
58.96    557
58.98    595
59.0     613
59.02    596
59.04    544
59.06    483
59.08    536
59.1     570
59.12    554
59.14    597
59.16    608
59.18    655
59.2     776
59.22    779
59.24    756
59.26    739
59.28    658
59.3     595
59.32    540
59.34    469
59.36    401
59.38    364
59.4     401
59.42    354
59.44    423
59.46    447
59.48    440
59.5     461
59.52    500
59.54    563
59.56    588
59.58    637
59.6     618
59.62    605
59.64    655
59.66    590
59.68    579
59.7     524
59.72    514
59.74    523
59.76    472
59.78    486
59.8     472
59.82    497
59.84    542
59.86    592
59.88    647
59.9     708
59.92    789
59.94    795
59.96    755
59.98    675
60.0     610
60.02    470
60.04    406
60.06    351
60.08    297
60.1     384
60.12    487
60.14    600
60.16    670
60.18    679
60.2     698
60.22    656
60.24    641
60.26    594
60.28    536
60.3     514
60.32    507
60.34    522
60.36    500
60.38    473
60.4     538
60.42    541
60.44    552
60.46    570
60.48    586
60.5     557
60.52    536
60.54    523
60.56    529
60.58    513
60.6     517
60.62    475
60.64    460
60.66    503
60.68    585
60.7     629
60.72    643
60.74    673
60.76    674
60.78    660
60.8     622
60.82    567
60.84    464
60.86    420
60.88    419
60.9     381
60.92    400
60.94    414
60.96    474
60.98    573
61.0     648
61.02    731
61.04    683
61.06    662
61.08    606
61.1     457
61.12    430
61.14    299
61.16    314
61.18    309
61.2     365
61.22    487
61.24    520
61.26    590
61.28    580
61.3     586
61.32    583
61.34    552
61.36    540
61.38    472
61.4     446
61.42    476
61.44    489
61.46    541
61.48    580
61.5     592
61.52    623
61.54    662
61.56    648
61.58    634
61.6     620
61.62    627
61.64    608
61.66    671
61.68    662
61.7     632
61.72    663
61.74    701
61.76    757
61.78    804
61.8     804
61.82    824
61.84    833
61.86    891
61.88    894
61.9     877
61.92    929
61.94    1012
61.96    1154
61.98    1440
62.0     2126
62.02    3675
62.04    5998
62.06    8888
62.08    11969
62.1     14765
62.12    16989
62.14    18227
62.16    18420
62.18    17690
62.2     16335
62.22    14842
62.24    13223
62.26    11623
62.28    9987
62.3     8382
62.32    6871
62.34    5461
62.36    4272
62.38    3400
62.4     2674
62.42    2135
62.44    1764
62.46    1556
62.48    1345
62.5     1232
62.52    1127
62.54    1011
62.56    898
62.58    898
62.6     960
62.62    1034
62.64    1144
62.66    1274
62.68    1349
62.7     1392
62.72    1409
62.74    1399
62.76    1242
62.78    1086
62.8     1054
62.82    982
62.84    848
62.86    768
62.88    654
62.9     561
62.92    498
62.94    521
62.96    474
62.98    442
63.0     506
63.02    567
63.04    530
63.06    577
63.08    584
63.1     613
63.12    600
63.14    608
63.16    643
63.18    664
63.2     596
63.22    594
63.24    556
63.26    553
63.28    544
63.3     530
63.32    510
63.34    480
63.36    527
63.38    589
63.4     485
63.42    534
63.44    586
63.46    626
63.48    626
63.5     597
63.52    556
63.54    531
63.56    512
63.58    578
63.6     510
63.62    582
63.64    629
63.66    650
63.68    635
63.7     646
63.72    591
63.74    596
63.76    482
63.78    517
63.8     504
63.82    565
63.84    588
63.86    600
63.88    618
63.9     621
63.92    599
63.94    654
63.96    554
63.98    575
64.0     522
64.02    549
64.04    438
64.06    356
64.08    286
64.1     258
64.12    269
64.14    384
64.16    423
64.18    513
64.2     543
64.22    667
64.24    659
64.26    658
64.28    682
64.3     691
64.32    655
64.34    628
64.36    555
64.38    512
64.4     428
64.42    438
64.44    444
64.46    419
64.48    450
64.5     518
64.52    559
64.54    641
64.56    702
64.58    761
64.6     780
64.62    831
64.64    924
64.66    1019
64.68    1294
64.7     1753
64.72    2348
64.74    3089
64.76    3879
64.78    4560
64.8     5061
64.82    5333
64.84    5343
64.86    5102
64.88    4751
64.9     4270
64.92    3804
64.94    3299
64.96    2906
64.98    2501
65.0     2132
65.02    1810
65.04    1525
65.06    1279
65.08    1022
65.1     830
65.12    760
65.14    606
65.16    551
65.18    513
65.2     457
65.22    483
65.24    460
65.26    448
65.28    488
65.3     514
65.32    597
65.34    610
65.36    651
65.38    687
65.4     686
65.42    694
65.44    617
65.46    566
65.48    521
65.5     456
65.52    438
65.54    435
65.56    442
65.58    465
65.6     461
65.62    498
65.64    510
65.66    469
65.68    459
65.7     517
65.72    503
65.74    500
65.76    504
65.78    509
65.8     512
65.82    530
65.84    523
65.86    482
65.88    480
65.9     452
65.92    442
65.94    406
65.96    379
65.98    379
66.0     429
66.02    435
66.04    421
66.06    411
66.08    443
66.1     499
66.12    560
66.14    543
66.16    523
66.18    571
66.2     529
66.22    480
66.24    442
66.26    416
66.28    459
66.3     448
66.32    427
66.34    404
66.36    392
66.38    421
66.4     436
66.42    512
66.44    559
66.46    533
66.48    524
66.5     505
66.52    457
66.54    428
66.56    351
66.58    398
66.6     483
66.62    498
66.64    551
66.66    550
66.68    515
66.7     552
66.72    494
66.74    529
66.76    548
66.78    565
66.8     553
66.82    524
66.84    538
66.86    507
66.88    445
66.9     401
66.92    364
66.94    399
66.96    443
66.98    363
67.0     378
67.02    368
67.04    401
67.06    399
67.08    434
67.1     446
67.12    456
67.14    476
67.16    517
67.18    498
67.2     502
67.22    462
67.24    418
67.26    357
67.28    392
67.3     400
67.32    450
67.34    463
67.36    500
67.38    458
67.4     473
67.42    529
67.44    577
67.46    599
67.48    647
67.5     643
67.52    663
67.54    585
67.56    526
67.58    427
67.6     378
67.62    307
67.64    242
67.66    222
67.68    265
67.7     298
67.72    364
67.74    417
67.76    489
67.78    548
67.8     586
67.82    561
67.84    563
67.86    546
67.88    554
67.9     548
67.92    523
67.94    489
67.96    477
67.98    418
68.0     443
68.02    468
68.04    473
68.06    390
68.08    421
68.1     443
68.12    415
68.14    412
68.16    417
68.18    382
68.2     411
68.22    458
68.24    507
68.26    521
68.28    553
68.3     564
68.32    534
68.34    516
68.36    488
68.38    484
68.4     488
68.42    497
68.44    508
68.46    498
68.48    471
68.5     434
68.52    392
68.54    367
68.56    392
68.58    445
68.6     535
68.62    618
68.64    644
68.66    710
68.68    739
68.7     749
68.72    788
68.74    812
68.76    858
68.78    947
68.8     1137
68.82    1404
68.84    1871
68.86    2549
68.88    3435
68.9     4459
68.92    5538
68.94    6450
68.96    7002
68.98    7023
69.0     6511
69.02    5549
69.04    4406
69.06    3242
69.08    2164
69.1     1357
69.12    937
69.14    754
69.16    673
69.18    701
69.2     686
69.22    654
69.24    643
69.26    665
69.28    646
69.3     654
69.32    624
69.34    553
69.36    535
69.38    585
69.4     504
69.42    452
69.44    423
69.46    391
69.48    437
69.5     413
69.52    386
69.54    360
69.56    457
69.58    495
69.6     468
69.62    521
69.64    547
69.66    574
69.68    602
69.7     598
69.72    566
69.74    535
69.76    536
69.78    498
69.8     484
69.82    497
69.84    481
69.86    500
69.88    515
69.9     493
69.92    452
69.94    417
69.96    380
69.98    385
70.0     349
70.02    359
70.04    415
70.06    422
70.08    473
70.1     518
70.12    587
70.14    623
70.16    635
70.18    675
70.2     674
70.22    664
70.24    604
70.26    534
70.28    549
70.3     596
70.32    686
70.34    814
70.36    919
70.38    1108
70.4     1271
70.42    1406
70.44    1595
70.46    1754
70.48    1918
70.5     2112
70.52    2283
70.54    2399
70.56    2458
70.58    2569
70.6     2590
70.62    2547
70.64    2345
70.66    1991
70.68    1681
70.7     1332
70.72    993
70.74    710
70.76    582
70.78    567
70.8     549
70.82    555
70.84    592
70.86    617
70.88    648
70.9     566
70.92    512
70.94    508
70.96    530
70.98    467
71.0     409
71.02    368
71.04    345
71.06    285
71.08    231
71.1     227
71.12    296
71.14    371
71.16    506
71.18    566
71.2     615
71.22    647
71.24    618
71.26    583
71.28    508
71.3     466
71.32    412
71.34    398
71.36    486
71.38    510
71.4     573
71.42    665
71.44    672
71.46    659
71.48    593
71.5     518
71.52    456
71.54    421
71.56    370
71.58    333
71.6     371
71.62    413
71.64    425
71.66    484
71.68    511
71.7     512
71.72    469
71.74    426
71.76    436
71.78    448
71.8     473
71.82    504
71.84    517
71.86    536
71.88    516
71.9     476
71.92    431
71.94    417
71.96    428
71.98    424
72.0     416
72.02    452
72.04    500
72.06    545
72.08    561
72.1     542
72.12    558
72.14    510
72.16    567
72.18    580
72.2     541
72.22    585
72.24    620
72.26    589
72.28    579
72.3     595
72.32    620
72.34    641
72.36    790
72.38    946
72.4     1221
72.42    1810
72.44    2727
72.46    3835
72.48    5070
72.5     6187
72.52    7006
72.54    7424
72.56    7405
72.58    6937
72.6     6112
72.62    5190
72.64    4272
72.66    3414
72.68    2686
72.7     2092
72.72    1662
72.74    1379
72.76    1234
72.78    1110
72.8     976
72.82    858
72.84    727
72.86    629
72.88    540
72.9     477
72.92    495
72.94    570
72.96    582
72.98    598
73.0     573
73.02    607
73.04    607
73.06    568
73.08    511
73.1     543
73.12    636
73.14    657
73.16    586
73.18    571
73.2     578
73.22    598
73.24    544
73.26    488
73.28    485
73.3     538
73.32    628
73.34    698
73.36    809
73.38    918
73.4     1048
73.42    1112
73.44    1159
73.46    1173
73.48    1184
73.5     1154
73.52    1149
73.54    1140
73.56    1158
73.58    1055
73.6     994
73.62    928
73.64    867
73.66    802
73.68    732
73.7     666
73.72    596
73.74    561
73.76    547
73.78    535
73.8     573
73.82    574
73.84    608
73.86    648
73.88    629
73.9     606
73.92    589
73.94    590
73.96    615
73.98    648
74.0     676
74.02    717
74.04    746
74.06    673
74.08    623
74.1     645
74.12    717
74.14    862
74.16    1054
74.18    1274
74.2     1582
74.22    1872
74.24    2035
74.26    2162
74.28    2320
74.3     2372
74.32    2351
74.34    2276
74.36    2137
74.38    2012
74.4     1952
74.42    1775
74.44    1624
74.46    1582
74.48    1455
74.5     1306
74.52    1171
74.54    1021
74.56    857
74.58    814
74.6     782
74.62    690
74.64    774
74.66    929
74.68    1105
74.7     1407
74.72    1705
74.74    2050
74.76    2452
74.78    2849
74.8     3139
74.82    3410
74.84    3518
74.86    3448
74.88    3195
74.9     2820
74.92    2318
74.94    1870
74.96    1511
74.98    1143
75.0     952
75.02    908
75.04    804
75.06    769
75.08    702
75.1     722
75.12    750
75.14    809
75.16    870
75.18    914
75.2     889
75.22    854
75.24    784
75.26    699
75.28    607
75.3     513
75.32    466
75.34    418
75.36    409
75.38    366
75.4     284
75.42    287
75.44    312
75.46    385
75.48    448
75.5     481
75.52    559
75.54    565
75.56    567
75.58    549
75.6     633
75.62    585
75.64    552
75.66    587
75.68    519
75.7     487
75.72    481
75.74    424
75.76    416
75.78    461
75.8     476
75.82    356
75.84    388
75.86    408
75.88    338
75.9     377
75.92    400
75.94    436
75.96    486
75.98    475
76.0     428
76.02    392
76.04    428
76.06    375
76.08    345
76.1     380
76.12    359
76.14    371
76.16    330
76.18    340
76.2     336
76.22    328
76.24    360
76.26    347
76.28    361
76.3     340
76.32    340
76.34    337
76.36    333
76.38    391
76.4     357
76.42    417
76.44    437
76.46    422
76.48    404
76.5     456
76.52    538
76.54    535
76.56    528
76.58    489
76.6     462
76.62    504
76.64    440
76.66    454
76.68    475
76.7     541
76.72    527
76.74    440
76.76    442
76.78    366
76.8     393
76.82    420
76.84    346
76.86    348
76.88    305
76.9     308
76.92    259
76.94    242
76.96    329
76.98    397
77.0     515
77.02    546
77.04    559
77.06    637
77.08    673
77.1     695
77.12    698
77.14    705
77.16    695
77.18    708
77.2     682
77.22    569
77.24    548
77.26    550
77.28    537
77.3     543
77.32    680
77.34    765
77.36    806
77.38    960
77.4     1118
77.42    1411
77.44    2023
77.46    2826
77.48    3752
77.5     4749
77.52    5689
77.54    6311
77.56    6637
77.58    6733
77.6     6520
77.62    6218
77.64    5917
77.66    5476
77.68    4956
77.7     4431
77.72    3834
77.74    3250
77.76    2718
77.78    2294
77.8     1908
77.82    1614
77.84    1412
77.86    1166
77.88    978
77.9     839
77.92    726
77.94    625
77.96    601
77.98    602
78.0     551
78.02    525
78.04    500
78.06    504
78.08    505
78.1     562
78.12    554
78.14    509
78.16    611
78.18    569
78.2     551
78.22    483
78.24    461
78.26    414
78.28    377
78.3     418
78.32    350
78.34    312
78.36    348
78.38    363
78.4     404
78.42    360
78.44    396
78.46    436
78.48    502
78.5     563
78.52    516
78.54    427
78.56    449
78.58    486
78.6     466
78.62    441
78.64    381
78.66    387
78.68    316
78.7     301
78.72    231
78.74    190
78.76    258
78.78    265
78.8     293
78.82    327
78.84    344
78.86    368
78.88    383
78.9     459
78.92    499
78.94    505
78.96    518
78.98    452
79.0     464
79.02    385
79.04    387
79.06    352
79.08    350
79.1     392
79.12    405
79.14    421
79.16    444
79.18    463
79.2     495
79.22    424
79.24    407
79.26    448
79.28    432
79.3     433
79.32    401
79.34    388
79.36    383
79.38    392
79.4     417
79.42    393
79.44    394
79.46    467
79.48    411
79.5     359
79.52    316
79.54    281
79.56    345
79.58    378
79.6     416
79.62    427
79.64    455
79.66    509
79.68    437
79.7     357
79.72    313
79.74    335
79.76    419
79.78    408
79.8     408
79.82    425
79.84    415
79.86    503
79.88    495
79.9     485
79.92    565
79.94    672
79.96    732
79.98    703
80.0     686
80.02    677
80.04    677
80.06    736
80.08    763
80.1     720
80.12    744
80.14    748
80.16    690
80.18    591
80.2     530
80.22    554
80.24    570
80.26    574
80.28    544
80.3     448
80.32    369
80.34    336
80.36    275
80.38    211
80.4     223
80.42    283
80.44    345
80.46    346
80.48    329
80.5     326
80.52    330
80.54    368
80.56    390
80.58    390
80.6     500
80.62    528
80.64    590
80.66    524
80.68    483
80.7     504
80.72    499
80.74    501
80.76    443
80.78    392
80.8     378
80.82    263
80.84    242
80.86    184
80.88    186
80.9     238
80.92    339
80.94    370
80.96    344
80.98    284
81.0     297
81.02    282
81.04    272
81.06    282
81.08    343
81.1     390
81.12    452
81.14    338
81.16    318
81.18    334
81.2     384
81.22    426
81.24    391
81.26    422
81.28    478
81.3     479
81.32    456
81.34    369
81.36    346
81.38    402
81.4     428
81.42    397
81.44    315
81.46    342
81.48    326
81.5     268
81.52    246
81.54    255
81.56    255
81.58    320
81.6     378
81.62    348
81.64    327
81.66    422
81.68    487
81.7     513
81.72    534
81.74    574
81.76    602
81.78    559
81.8     532
81.82    426
81.84    299
81.86    274
81.88    323
81.9     346
81.92    309
81.94    321
81.96    378
81.98    361
82.0     305
82.02    220
82.04    196
82.06    176
82.08    243
82.1     333
82.12    328
82.14    319
82.16    324
82.18    342
82.2     342
82.22    332
82.24    375
82.26    413
82.28    487
82.3     516
82.32    429
82.34    392
82.36    347
82.38    357
82.4     369
82.42    333
82.44    305
82.46    286
82.48    256
82.5     220
82.52    183
82.54    247
82.56    315
82.58    381
82.6     379
82.62    409
82.64    356
82.66    303
82.68    227
82.7     246
82.72    255
82.74    334
82.76    412
82.78    397
82.8     364
82.82    380
82.84    352
82.86    305
82.88    266
82.9     333
82.92    394
82.94    446
82.96    413
82.98    337
83.0     270
83.02    245
83.04    200
83.06    178
83.08    217
83.1     231
83.12    255
83.14    264
83.16    229
83.18    205
83.2     194
83.22    280
83.24    327
83.26    411
83.28    501
83.3     482
83.32    494
83.34    463
83.36    422
83.38    391
83.4     340
83.42    336
83.44    326
83.46    321
83.48    309
83.5     283
83.52    285
83.54    201
83.56    175
83.58    154
83.6     179
83.62    247
83.64    267
83.66    317
83.68    351
83.7     386
83.72    379
83.74    334
83.76    335
83.78    349
83.8     452
83.82    434
83.84    438
83.86    381
83.88    367
83.9     319
83.92    258
83.94    279
83.96    294
83.98    328
84.0     370
84.02    313
84.04    344
84.06    293
84.08    356
84.1     379
84.12    374
84.14    392
84.16    393
84.18    425
84.2     438
84.22    399
84.24    364
84.26    346
84.28    356
84.3     349
84.32    332
84.34    313
84.36    321
84.38    355
84.4     434
84.42    418
84.44    390
84.46    353
84.48    317
84.5     361
84.52    405
84.54    388
84.56    404
84.58    368
84.6     438
84.62    408
84.64    355
84.66    291
84.68    371
84.7     476
84.72    556
84.74    636
84.76    648
84.78    626
84.8     703
84.82    668
84.84    646
84.86    598
84.88    589
84.9     532
84.92    464
84.94    385
84.96    271
84.98    268
85.0     194
85.02    241
85.04    295
85.06    273
85.08    229
85.1     247
85.12    276
85.14    320
85.16    378
85.18    414
85.2     444
85.22    559
85.24    558
85.26    518
85.28    396
85.3     330
85.32    312
85.34    271
85.36    262
85.38    170
85.4     184
85.42    130
85.44    186
85.46    191
85.48    171
85.5     181
85.52    210
85.54    315
85.56    418
85.58    391
85.6     363
85.62    292
85.64    367
85.66    325
85.68    348
85.7     306
85.72    334
85.74    411
85.76    481
85.78    460
85.8     405
85.82    344
85.84    317
85.86    339
85.88    387
85.9     360
85.92    368
85.94    341
85.96    307
85.98    256
86.0     204
86.02    88
86.04    79
86.06    172
86.08    235
86.1     332
86.12    403
86.14    384
86.16    405
86.18    484
86.2     447
86.22    367
86.24    410
86.26    449
86.28    521
86.3     639
86.32    693
86.34    792
86.36    1016
86.38    1202
86.4     1324
86.42    1408
86.44    1530
86.46    1552
86.48    1531
86.5     1455
86.52    1368
86.54    1266
86.56    1094
86.58    987
86.6     802
86.62    669
86.64    622
86.66    548
86.68    539
86.7     502
86.72    541
86.74    486
86.76    486
86.78    528
86.8     515
86.82    578
86.84    595
86.86    596
86.88    568
86.9     504
86.92    432
86.94    385
86.96    344
86.98    292
87.0     288
87.02    250
87.04    187
87.06    163
87.08    69
87.1     46
87.12    27
87.14    94
87.16    171
87.18    274
87.2     336
87.22    372
87.24    374
87.26    357
87.28    300
87.3     232
87.32    220
87.34    240
87.36    339
87.38    383
87.4     415
87.42    435
87.44    438
87.46    464
87.48    415
87.5     391
87.52    452
87.54    444
87.56    443
87.58    430
87.6     436
87.62    448
87.64    432
87.66    406
87.68    347
87.7     416
87.72    420
87.74    407
87.76    405
87.78    372
87.8     361
87.82    388
87.84    362
87.86    335
87.88    319
87.9     306
87.92    342
87.94    387
87.96    367
87.98    312
88.0     329
88.02    358
88.04    357
88.06    372
88.08    381
88.1     387
88.12    451
88.14    449
88.16    412
88.18    387
88.2     375
88.22    390
88.24    389
88.26    414
88.28    447
88.3     431
88.32    405
88.34    335
88.36    258
88.38    200
88.4     189
88.42    187
88.44    192
88.46    261
88.48    323
88.5     355
88.52    349
88.54    267
88.56    266
88.58    249
88.6     226
88.62    271
88.64    295
88.66    309
88.68    304
88.7     315
88.72    310
88.74    278
88.76    308
88.78    293
88.8     357
88.82    541
88.84    562
88.86    552
88.88    506
88.9     438
88.92    391
88.94    337
88.96    323
88.98    244
89.0     234
89.02    310
89.04    247
89.06    251
89.08    193
89.1     130
89.12    147
89.14    196
89.16    239
89.18    246
89.2     274
89.22    360
89.24    349
89.26    471
89.28    499
89.3     480
89.32    498
89.34    433
89.36    447
89.38    494
89.4     446
89.42    411
89.44    337
89.46    322
89.48    319
89.5     259
89.52    177
89.54    68
89.56    87
89.58    137
89.6     213
89.62    307
89.64    284
89.66    323
89.68    436
89.7     450
89.72    408
89.74    372
89.76    344
89.78    352
89.8     413
89.82    442
89.84    408
89.86    410
89.88    409
89.9     380
89.92    410
89.94    423
89.96    384
89.98    365
90.0     379
