?
5.0      502
5.02     502
5.04     647
5.06     631
5.08     648
5.1      634
5.12     641
5.14     663
5.16     654
5.18     652
5.2      633
5.22     601
5.24     606
5.26     570
5.28     574
5.3      572
5.32     595
5.34     619
5.36     650
5.38     660
5.4      682
5.42     675
5.44     691
5.46     671
5.48     687
5.5      650
5.52     615
5.54     612
5.56     629
5.58     639
5.6      651
5.62     599
5.64     613
5.66     597
5.68     585
5.7      586
5.72     585
5.74     594
5.76     605
5.78     643
5.8      646
5.82     634
5.84     652
5.86     622
5.88     621
5.9      644
5.92     645
5.94     630
5.96     654
5.98     669
6.0      668
6.02     626
6.04     612
6.06     608
6.08     606
6.1      594
6.12     624
6.14     629
6.16     648
6.18     683
6.2      694
6.22     669
6.24     696
6.26     727
6.28     700
6.3      705
6.32     699
6.34     688
6.36     688
6.38     704
6.4      677
6.42     664
6.44     672
6.46     659
6.48     664
6.5      658
6.52     637
6.54     620
6.56     614
6.58     570
6.6      559
6.62     586
6.64     633
6.66     610
6.68     657
6.7      631
6.72     653
6.74     665
6.76     636
6.78     653
6.8      675
6.82     703
6.84     682
6.86     660
6.88     625
6.9      579
6.92     589
6.94     590
6.96     556
6.98     625
7.0      624
7.02     618
7.04     627
7.06     631
7.08     596
7.1      569
7.12     595
7.14     590
7.16     579
7.18     584
7.2      620
7.22     658
7.24     693
7.26     702
7.28     697
7.3      698
7.32     682
7.34     661
7.36     610
7.38     591
7.4      652
7.42     643
7.44     652
7.46     684
7.48     702
7.5      714
7.52     699
7.54     691
7.56     659
7.58     673
7.6      668
7.62     685
7.64     714
7.66     734
7.68     767
7.7      749
7.72     751
7.74     681
7.76     651
7.78     608
7.8      599
7.82     621
7.84     626
7.86     630
7.88     632
7.9      628
7.92     598
7.94     548
7.96     583
7.98     590
8.0      629
8.02     646
8.04     715
8.06     756
8.08     760
8.1      742
8.12     677
8.14     651
8.16     674
8.18     646
8.2      590
8.22     589
8.24     628
8.26     652
8.28     640
8.3      658
8.32     670
8.34     676
8.36     741
8.38     667
8.4      623
8.42     665
8.44     662
8.46     675
8.48     640
8.5      627
8.52     682
8.54     656
8.56     717
8.58     644
8.6      674
8.62     706
8.64     686
8.66     671
8.68     613
8.7      596
8.72     615
8.74     622
8.76     674
8.78     677
8.8      663
8.82     715
8.84     673
8.86     668
8.88     682
8.9      586
8.92     571
8.94     581
8.96     590
8.98     607
9.0      606
9.02     642
9.04     583
9.06     622
9.08     627
9.1      583
9.12     596
9.14     614
9.16     606
9.18     651
9.2      634
9.22     596
9.24     549
9.26     607
9.28     577
9.3      550
9.32     516
9.34     475
9.36     468
9.38     513
9.4      520
9.42     564
9.44     604
9.46     680
9.48     612
9.5      602
9.52     612
9.54     534
9.56     569
9.58     562
9.6      550
9.62     588
9.64     547
9.66     485
9.68     452
9.7      460
9.72     440
9.74     446
9.76     453
9.78     452
9.8      433
9.82     452
9.84     421
9.86     450
9.88     471
9.9      440
9.92     462
9.94     487
9.96     475
9.98     478
10.0     454
10.02    427
10.04    426
10.06    455
10.08    418
10.1     426
10.12    414
10.14    368
10.16    387
10.18    435
10.2     404
10.22    405
10.24    393
10.26    387
10.28    392
10.3     364
10.32    369
10.34    341
10.36    435
10.38    461
10.4     436
10.42    472
10.44    454
10.46    441
10.48    448
10.5     379
10.52    434
10.54    408
10.56    452
10.58    431
10.6     362
10.62    413
10.64    446
10.66    420
10.68    429
10.7     419
10.72    432
10.74    405
10.76    405
10.78    408
10.8     371
10.82    473
10.84    486
10.86    433
10.88    467
10.9     493
10.92    502
10.94    477
10.96    485
10.98    455
11.0     466
11.02    454
11.04    420
11.06    371
11.08    370
11.1     386
11.12    354
11.14    323
11.16    351
11.18    354
11.2     389
11.22    382
11.24    468
11.26    433
11.28    440
11.3     484
11.32    445
11.34    382
11.36    413
11.38    438
11.4     436
11.42    412
11.44    421
11.46    382
11.48    438
11.5     471
11.52    471
11.54    461
11.56    466
11.58    502
11.6     491
11.62    453
11.64    458
11.66    501
11.68    507
11.7     507
11.72    519
11.74    496
11.76    399
11.78    434
11.8     402
11.82    381
11.84    390
11.86    409
11.88    380
11.9     411
11.92    462
11.94    468
11.96    476
11.98    547
12.0     535
12.02    529
12.04    533
12.06    543
12.08    528
12.1     553
12.12    591
12.14    571
12.16    540
12.18    530
12.2     496
12.22    440
12.24    377
12.26    414
12.28    438
12.3     510
12.32    539
12.34    563
12.36    612
12.38    605
12.4     566
12.42    561
12.44    562
12.46    537
12.48    543
12.5     604
12.52    564
12.54    569
12.56    569
12.58    527
12.6     484
12.62    516
12.64    537
12.66    470
12.68    508
12.7     518
12.72    486
12.74    482
12.76    478
12.78    523
12.8     533
12.82    563
12.84    606
12.86    585
12.88    608
12.9     623
12.92    629
12.94    660
12.96    683
12.98    710
13.0     705
13.02    730
13.04    692
13.06    613
13.08    627
13.1     643
13.12    643
13.14    650
13.16    664
13.18    623
13.2     600
13.22    681
13.24    629
13.26    600
13.28    635
13.3     639
13.32    634
13.34    647
13.36    656
13.38    636
13.4     637
13.42    700
13.44    671
13.46    639
13.48    665
13.5     687
13.52    690
13.54    727
13.56    789
13.58    807
13.6     805
13.62    763
13.64    720
13.66    705
13.68    706
13.7     689
13.72    692
13.74    715
13.76    725
13.78    763
13.8     778
13.82    691
13.84    683
13.86    729
13.88    717
13.9     721
13.92    765
13.94    736
13.96    744
13.98    859
14.0     826
14.02    740
14.04    751
14.06    761
14.08    710
14.1     678
14.12    694
14.14    679
14.16    703
14.18    746
14.2     711
14.22    731
14.24    755
14.26    753
14.28    690
14.3     736
14.32    802
14.34    788
14.36    781
14.38    779
14.4     803
14.42    835
14.44    844
14.46    792
14.48    699
14.5     704
14.52    716
14.54    717
14.56    722
14.58    784
14.6     837
14.62    841
14.64    914
14.66    884
14.68    846
14.7     822
14.72    844
14.74    836
14.76    847
14.78    918
14.8     908
14.82    873
14.84    898
14.86    922
14.88    955
14.9     923
14.92    939
14.94    993
14.96    1072
14.98    1035
15.0     984
15.02    915
15.04    882
15.06    865
15.08    830
15.1     753
15.12    777
15.14    878
15.16    918
15.18    876
15.2     903
15.22    911
15.24    873
15.26    878
15.28    887
15.3     900
15.32    889
15.34    894
15.36    943
15.38    931
15.4     872
15.42    867
15.44    855
15.46    833
15.48    831
15.5     911
15.52    858
15.54    861
15.56    930
15.58    864
15.6     834
15.62    940
15.64    974
15.66    932
15.68    949
15.7     1041
15.72    1049
15.74    1065
15.76    1050
15.78    975
15.8     974
15.82    1062
15.84    1081
15.86    1095
15.88    1140
15.9     1226
15.92    1352
15.94    1434
15.96    1457
15.98    1531
16.0     1631
16.02    1699
16.04    1761
16.06    1855
16.08    1830
16.1     1873
16.12    2044
16.14    2165
16.16    2161
16.18    2379
16.2     2620
16.22    2877
16.24    3248
16.26    3663
16.28    4056
16.3     4666
16.32    5483
16.34    6403
16.36    7429
16.38    8865
16.4     10602
16.42    12866
16.44    15784
16.46    19650
16.48    24879
16.5     32038
16.52    40751
16.54    49084
16.56    54240
16.58    54832
16.6     50840
16.62    42987
16.64    32712
16.66    21896
16.68    12577
16.7     6517
16.72    3839
16.74    3268
16.76    3060
16.78    2759
16.8     2550
16.82    2347
16.84    2274
16.86    2148
16.88    1951
16.9     1764
16.92    1625
16.94    1506
16.96    1383
16.98    1366
17.0     1381
17.02    1326
17.04    1338
17.06    1316
17.08    1185
17.1     1166
17.12    1262
17.14    1241
17.16    1276
17.18    1321
17.2     1254
17.22    1169
17.24    1151
17.26    1110
17.28    998
17.3     1052
17.32    1095
17.34    1060
17.36    1103
17.38    1076
17.4     1037
17.42    1015
17.44    965
17.46    915
17.48    892
17.5     928
17.52    937
17.54    913
17.56    917
17.58    880
17.6     825
17.62    869
17.64    832
17.66    783
17.68    766
17.7     816
17.72    897
17.74    861
17.76    808
17.78    814
17.8     851
17.82    887
17.84    816
17.86    806
17.88    783
17.9     770
17.92    797
17.94    783
17.96    709
17.98    797
18.0     882
18.02    880
18.04    897
18.06    910
18.08    896
18.1     833
18.12    800
18.14    716
18.16    626
18.18    677
18.2     713
18.22    764
18.24    769
18.26    745
18.28    734
18.3     701
18.32    693
18.34    652
18.36    586
18.38    602
18.4     684
18.42    691
18.44    653
18.46    707
18.48    705
18.5     724
18.52    737
18.54    778
18.56    731
18.58    754
18.6     759
18.62    699
18.64    663
18.66    660
18.68    676
18.7     681
18.72    715
18.74    776
18.76    755
18.78    767
18.8     760
18.82    771
18.84    769
18.86    818
18.88    828
18.9     772
18.92    770
18.94    688
18.96    660
18.98    655
19.0     590
19.02    558
19.04    640
19.06    679
19.08    602
19.1     582
19.12    623
19.14    589
19.16    639
19.18    606
19.2     578
19.22    610
19.24    691
19.26    706
19.28    689
19.3     707
19.32    701
19.34    673
19.36    618
19.38    535
19.4     526
19.42    554
19.44    590
19.46    650
19.48    664
19.5     687
19.52    664
19.54    646
19.56    648
19.58    620
19.6     632
19.62    686
19.64    696
19.66    670
19.68    659
19.7     627
19.72    646
19.74    631
19.76    633
19.78    562
19.8     560
19.82    541
19.84    542
19.86    481
19.88    445
19.9     453
19.92    550
19.94    583
19.96    567
19.98    608
20.0     661
20.02    604
20.04    599
20.06    518
20.08    507
20.1     522
20.12    557
20.14    573
20.16    569
20.18    593
20.2     578
20.22    456
20.24    417
20.26    455
20.28    530
20.3     556
20.32    556
20.34    588
20.36    538
20.38    480
20.4     497
20.42    488
20.44    558
20.46    642
20.48    683
20.5     701
20.52    646
20.54    686
20.56    633
20.58    597
20.6     599
20.62    620
20.64    676
20.66    660
20.68    606
20.7     524
20.72    501
20.74    564
20.76    608
20.78    588
20.8     621
20.82    669
20.84    651
20.86    618
20.88    648
20.9     619
20.92    620
20.94    644
20.96    617
20.98    580
21.0     600
21.02    581
21.04    524
21.06    561
21.08    683
21.1     582
21.12    547
21.14    544
21.16    532
21.18    540
21.2     553
21.22    532
21.24    572
21.26    631
21.28    666
21.3     634
21.32    681
21.34    678
21.36    694
21.38    641
21.4     577
21.42    514
21.44    528
21.46    532
21.48    518
21.5     540
21.52    521
21.54    501
21.56    517
21.58    504
21.6     446
21.62    418
21.64    475
21.66    550
21.68    531
21.7     488
21.72    473
21.74    509
21.76    488
21.78    429
21.8     389
21.82    356
21.84    437
21.86    488
21.88    477
21.9     430
21.92    399
21.94    404
21.96    362
21.98    350
22.0     419
22.02    430
22.04    486
22.06    499
22.08    498
22.1     510
22.12    513
22.14    523
22.16    532
22.18    503
22.2     514
22.22    507
22.24    483
22.26    469
22.28    486
22.3     506
22.32    485
22.34    498
22.36    495
22.38    485
22.4     517
22.42    542
22.44    542
22.46    493
22.48    492
22.5     457
22.52    476
22.54    485
22.56    462
22.58    491
22.6     503
22.62    459
22.64    478
22.66    438
22.68    472
22.7     514
22.72    535
22.74    496
22.76    461
22.78    436
22.8     444
22.82    483
22.84    531
22.86    510
22.88    488
22.9     433
22.92    383
22.94    361
22.96    375
22.98    392
23.0     442
23.02    510
23.04    531
23.06    529
23.08    586
23.1     571
23.12    564
23.14    527
23.16    492
23.18    466
23.2     346
23.22    372
23.24    368
23.26    400
23.28    463
23.3     528
23.32    532
23.34    565
23.36    545
23.38    581
23.4     468
23.42    448
23.44    322
23.46    315
23.48    321
23.5     422
23.52    423
23.54    496
23.56    462
23.58    524
23.6     440
23.62    366
23.64    275
23.66    302
23.68    351
23.7     435
23.72    444
23.74    464
23.76    419
23.78    463
23.8     485
23.82    462
23.84    397
23.86    344
23.88    364
23.9     418
23.92    410
23.94    363
23.96    383
23.98    417
24.0     473
24.02    442
24.04    395
24.06    330
24.08    333
24.1     352
24.12    364
24.14    384
24.16    495
24.18    533
24.2     548
24.22    495
24.24    455
24.26    385
24.28    363
24.3     424
24.32    433
24.34    456
24.36    490
24.38    549
24.4     521
24.42    532
24.44    487
24.46    468
24.48    441
24.5     469
24.52    396
24.54    351
24.56    292
24.58    300
24.6     339
24.62    406
24.64    397
24.66    402
24.68    396
24.7     452
24.72    446
24.74    456
24.76    417
24.78    478
24.8     567
24.82    635
24.84    612
24.86    546
24.88    455
24.9     430
24.92    398
24.94    460
24.96    485
24.98    543
25.0     526
25.02    556
25.04    488
25.06    481
25.08    446
25.1     428
25.12    390
25.14    383
25.16    372
25.18    329
25.2     258
25.22    272
25.24    280
25.26    385
25.28    419
25.3     424
25.32    408
25.34    432
25.36    448
25.38    463
25.4     467
25.42    484
25.44    452
25.46    431
25.48    413
25.5     425
25.52    362
25.54    372
25.56    323
25.58    360
25.6     384
25.62    383
25.64    378
25.66    359
25.68    394
25.7     402
25.72    385
25.74    415
25.76    397
25.78    427
25.8     427
25.82    466
25.84    486
25.86    436
25.88    401
25.9     422
25.92    460
25.94    455
25.96    465
25.98    415
26.0     393
26.02    422
26.04    454
26.06    452
26.08    468
26.1     506
26.12    508
26.14    487
26.16    477
26.18    371
26.2     343
26.22    258
26.24    232
26.26    288
26.28    312
26.3     317
26.32    290
26.34    300
26.36    333
26.38    355
26.4     447
26.42    448
26.44    439
26.46    434
26.48    384
26.5     322
26.52    359
26.54    406
26.56    484
26.58    530
26.6     584
26.62    544
26.64    415
26.66    339
26.68    306
26.7     311
26.72    411
26.74    456
26.76    484
26.78    481
26.8     432
26.82    394
26.84    346
26.86    339
26.88    350
26.9     367
26.92    403
26.94    381
26.96    396
26.98    395
27.0     434
27.02    473
27.04    472
27.06    433
27.08    410
27.1     336
27.12    311
27.14    235
27.16    283
27.18    314
27.2     428
27.22    482
27.24    502
27.26    433
27.28    361
27.3     372
27.32    349
27.34    395
27.36    458
27.38    516
27.4     575
27.42    554
27.44    451
27.46    365
27.48    347
27.5     424
27.52    372
27.54    444
27.56    413
27.58    434
27.6     435
27.62    407
27.64    401
27.66    405
27.68    430
27.7     438
27.72    390
27.74    368
27.76    307
27.78    343
27.8     276
27.82    305
27.84    292
27.86    293
27.88    386
27.9     426
27.92    447
27.94    476
27.96    500
27.98    498
28.0     398
28.02    329
28.04    223
28.06    233
28.08    308
28.1     358
28.12    372
28.14    385
28.16    376
28.18    341
28.2     369
28.22    374
28.24    400
28.26    463
28.28    497
28.3     479
28.32    437
28.34    345
28.36    269
28.38    233
28.4     260
28.42    313
28.44    364
28.46    400
28.48    420
28.5     474
28.52    524
28.54    526
28.56    464
28.58    380
28.6     365
28.62    359
28.64    382
28.66    405
28.68    376
28.7     424
28.72    385
28.74    441
28.76    397
28.78    357
28.8     422
28.82    408
28.84    445
28.86    440
28.88    342
28.9     325
28.92    298
28.94    402
28.96    394
28.98    424
29.0     417
29.02    382
29.04    398
29.06    379
29.08    337
29.1     331
29.12    353
29.14    357
29.16    403
29.18    465
29.2     473
29.22    505
29.24    508
29.26    544
29.28    510
29.3     471
29.32    382
29.34    253
29.36    288
29.38    289
29.4     332
29.42    397
29.44    422
29.46    487
29.48    465
29.5     466
29.52    412
29.54    313
29.56    326
29.58    307
29.6     374
29.62    438
29.64    427
29.66    440
29.68    427
29.7     454
29.72    487
29.74    507
29.76    500
29.78    487
29.8     500
29.82    520
29.84    487
29.86    479
29.88    434
29.9     489
29.92    520
29.94    526
29.96    468
29.98    460
30.0     370
30.02    336
30.04    318
30.06    358
30.08    398
30.1     479
30.12    505
30.14    498
30.16    502
30.18    531
30.2     443
30.22    449
30.24    446
30.26    484
30.28    514
30.3     493
30.32    413
30.34    300
30.36    237
30.38    213
30.4     213
30.42    276
30.44    299
30.46    421
30.48    517
30.5     542
30.52    508
30.54    425
30.56    371
30.58    316
30.6     357
30.62    358
30.64    344
30.66    388
30.68    438
30.7     452
30.72    403
30.74    360
30.76    326
30.78    370
30.8     447
30.82    427
30.84    374
30.86    356
30.88    422
30.9     423
30.92    409
30.94    431
30.96    472
30.98    580
31.0     608
31.02    560
31.04    497
31.06    455
31.08    512
31.1     457
31.12    368
31.14    343
31.16    323
31.18    336
31.2     301
31.22    321
31.24    378
31.26    399
31.28    522
31.3     512
31.32    495
31.34    495
31.36    370
31.38    310
31.4     228
31.42    316
31.44    362
31.46    384
31.48    541
31.5     521
31.52    551
31.54    511
31.56    444
31.58    424
31.6     436
31.62    486
31.64    451
31.66    457
31.68    437
31.7     324
31.72    327
31.74    333
31.76    422
31.78    448
31.8     472
31.82    499
31.84    486
31.86    458
31.88    348
31.9     349
31.92    357
31.94    349
31.96    379
31.98    344
32.0     386
32.02    469
32.04    470
32.06    484
32.08    507
32.1     512
32.12    482
32.14    443
32.16    421
32.18    436
32.2     513
32.22    556
32.24    613
32.26    719
32.28    723
32.3     617
32.32    556
32.34    485
32.36    473
32.38    498
32.4     506
32.42    498
32.44    533
32.46    580
32.48    574
32.5     596
32.52    617
32.54    636
32.56    676
32.58    675
32.6     632
32.62    555
32.64    450
32.66    391
32.68    375
32.7     448
32.72    495
32.74    554
32.76    634
32.78    646
32.8     656
32.82    663
32.84    598
32.86    552
32.88    587
32.9     655
32.92    645
32.94    626
32.96    592
32.98    455
33.0     481
33.02    523
33.04    543
33.06    601
33.08    646
33.1     668
33.12    642
33.14    567
33.16    510
33.18    501
33.2     630
33.22    727
33.24    860
33.26    945
33.28    976
33.3     1008
33.32    992
33.34    984
33.36    1081
33.38    1309
33.4     1620
33.42    2013
33.44    2645
33.46    3534
33.48    4910
33.5     6950
33.52    9560
33.54    12144
33.56    14086
33.58    14930
33.6     14501
33.62    12873
33.64    10383
33.66    7534
33.68    4921
33.7     3098
33.72    2082
33.74    1497
33.76    1243
33.78    1135
33.8     1026
33.82    1001
33.84    932
33.86    942
33.88    933
33.9     881
33.92    831
33.94    726
33.96    745
33.98    765
34.0     667
34.02    687
34.04    649
34.06    621
34.08    641
34.1     608
34.12    594
34.14    552
34.16    570
34.18    598
34.2     592
34.22    653
34.24    667
34.26    629
34.28    668
34.3     652
34.32    682
34.34    624
34.36    638
34.38    670
34.4     679
34.42    684
34.44    648
34.46    590
34.48    536
34.5     530
34.52    520
34.54    503
34.56    535
34.58    550
34.6     602
34.62    618
34.64    615
34.66    600
34.68    535
34.7     513
34.72    498
34.74    579
34.76    554
34.78    579
34.8     588
34.82    658
34.84    703
34.86    792
34.88    875
34.9     1011
34.92    1141
34.94    1356
34.96    1637
34.98    2190
35.0     3234
35.02    5238
35.04    8074
35.06    11171
35.08    13577
35.1     14752
35.12    14464
35.14    12956
35.16    10392
35.18    7331
35.2     4528
35.22    2596
35.24    1658
35.26    1267
35.28    1016
35.3     892
35.32    857
35.34    937
35.36    1001
35.38    1042
35.4     1074
35.42    1004
35.44    838
35.46    708
35.48    605
35.5     637
35.52    687
35.54    753
35.56    765
35.58    735
35.6     688
35.62    660
35.64    667
35.66    719
35.68    819
35.7     897
35.72    898
35.74    811
35.76    667
35.78    474
35.8     365
35.82    420
35.84    530
35.86    668
35.88    770
35.9     837
35.92    875
35.94    834
35.96    775
35.98    678
36.0     732
36.02    780
36.04    842
36.06    953
36.08    975
36.1     985
36.12    1005
36.14    977
36.16    935
36.18    982
36.2     1129
36.22    1304
36.24    1665
36.26    2036
36.28    2476
36.3     3012
36.32    3691
36.34    4872
36.36    6945
36.38    10689
36.4     16374
36.42    22878
36.44    28372
36.46    31400
36.48    31577
36.5     28737
36.52    23472
36.54    16930
36.56    10533
36.58    5737
36.6     3294
36.62    2327
36.64    1960
36.66    1682
36.68    1565
36.7     1425
36.72    1397
36.74    1276
36.76    1231
36.78    1057
36.8     923
36.82    761
36.84    713
36.86    606
36.88    646
36.9     767
36.92    877
36.94    920
36.96    981
36.98    955
37.0     818
37.02    701
37.04    650
37.06    573
37.08    634
37.1     720
37.12    747
37.14    747
37.16    804
37.18    841
37.2     779
37.22    796
37.24    766
37.26    786
37.28    906
37.3     943
37.32    1037
37.34    1188
37.36    1312
37.38    1297
37.4     1181
37.42    984
37.44    761
37.46    601
37.48    496
37.5     423
37.52    484
37.54    649
37.56    767
37.58    831
37.6     759
37.62    634
37.64    544
37.66    433
37.68    395
37.7     409
37.72    457
37.74    515
37.76    612
37.78    644
37.8     630
37.82    624
37.84    599
37.86    601
37.88    606
37.9     604
37.92    613
37.94    524
37.96    526
37.98    523
38.0     477
38.02    451
38.04    463
38.06    455
38.08    427
38.1     446
38.12    460
38.14    465
38.16    553
38.18    579
38.2     543
38.22    576
38.24    579
38.26    496
38.28    490
38.3     520
38.32    571
38.34    623
38.36    646
38.38    644
38.4     616
38.42    552
38.44    454
38.46    360
38.48    313
38.5     304
38.52    401
38.54    392
38.56    444
38.58    486
38.6     519
38.62    490
38.64    511
38.66    505
38.68    477
38.7     500
38.72    537
38.74    516
38.76    555
38.78    569
38.8     577
38.82    563
38.84    613
38.86    569
38.88    495
38.9     437
38.92    405
38.94    428
38.96    411
38.98    485
39.0     549
39.02    580
39.04    633
39.06    605
39.08    538
39.1     516
39.12    501
39.14    448
39.16    401
39.18    484
39.2     447
39.22    441
39.24    415
39.26    398
39.28    358
39.3     385
39.32    380
39.34    442
39.36    491
39.38    580
39.4     565
39.42    600
39.44    555
39.46    529
39.48    438
39.5     395
39.52    379
39.54    408
39.56    390
39.58    465
39.6     502
39.62    587
39.64    689
39.66    733
39.68    709
39.7     691
39.72    570
39.74    439
39.76    359
39.78    298
39.8     288
39.82    343
39.84    469
39.86    550
39.88    627
39.9     639
39.92    618
39.94    630
39.96    663
39.98    616
40.0     618
40.02    658
40.04    753
40.06    794
40.08    846
40.1     855
40.12    878
40.14    853
40.16    814
40.18    774
40.2     721
40.22    696
40.24    758
40.26    803
40.28    828
40.3     867
40.32    882
40.34    881
40.36    866
40.38    884
40.4     822
40.42    756
40.44    749
40.46    728
40.48    699
40.5     739
40.52    814
40.54    886
40.56    980
40.58    1066
40.6     1055
40.62    1066
40.64    1058
40.66    1044
40.68    974
40.7     919
40.72    924
40.74    928
40.76    959
40.78    960
40.8     968
40.82    1060
40.84    1123
40.86    1137
40.88    1086
40.9     1133
40.92    1193
40.94    1242
40.96    1318
40.98    1332
41.0     1421
41.02    1563
41.04    1623
41.06    1603
41.08    1650
41.1     1760
41.12    1885
41.14    1990
41.16    2192
41.18    2289
41.2     2542
41.22    2857
41.24    3210
41.26    3693
41.28    4385
41.3     5164
41.32    6230
41.34    7414
41.36    9021
41.38    11199
41.4     14671
41.42    20570
41.44    31019
41.46    48122
41.48    70331
41.5     92377
41.52    108276
41.54    114357
41.56    109654
41.58    95294
41.6     74106
41.62    50458
41.64    29940
41.66    16685
41.68    10261
41.7     7559
41.72    5920
41.74    4759
41.76    3848
41.78    3351
41.8     3075
41.82    2903
41.84    2779
41.86    2659
41.88    2473
41.9     2225
41.92    1943
41.94    1735
41.96    1587
41.98    1513
42.0     1445
42.02    1500
42.04    1497
42.06    1532
42.08    1521
42.1     1474
42.12    1371
42.14    1285
42.16    1261
42.18    1143
42.2     1045
42.22    1018
42.24    977
42.26    988
42.28    1051
42.3     1127
42.32    1167
42.34    1208
42.36    1179
42.38    1111
42.4     1017
42.42    955
42.44    836
42.46    753
42.48    750
42.5     744
42.52    673
42.54    742
42.56    823
42.58    883
42.6     911
42.62    953
42.64    908
42.66    877
42.68    839
42.7     725
42.72    613
42.74    687
42.76    753
42.78    793
42.8     803
42.82    789
42.84    817
42.86    816
42.88    796
42.9     756
42.92    808
42.94    869
42.96    896
42.98    861
43.0     778
43.02    684
43.04    680
43.06    617
43.08    685
43.1     755
43.12    823
43.14    927
43.16    920
43.18    918
43.2     891
43.22    805
43.24    772
43.26    694
43.28    720
43.3     686
43.32    640
43.34    657
43.36    608
43.38    605
43.4     554
43.42    538
43.44    572
43.46    632
43.48    671
43.5     698
43.52    759
43.54    720
43.56    716
43.58    696
43.6     680
43.62    696
43.64    728
43.66    789
43.68    783
43.7     792
43.72    775
43.74    682
43.76    717
43.78    654
43.8     610
43.82    602
43.84    558
43.86    598
43.88    609
43.9     681
43.92    743
43.94    810
43.96    951
43.98    869
44.0     845
44.02    702
44.04    556
44.06    455
44.08    404
44.1     484
44.12    446
44.14    498
44.16    652
44.18    706
44.2     772
44.22    741
44.24    796
44.26    805
44.28    858
44.3     856
44.32    802
44.34    781
44.36    723
44.38    638
44.4     569
44.42    511
44.44    431
44.46    378
44.48    413
44.5     407
44.52    505
44.54    526
44.56    589
44.58    672
44.6     732
44.62    756
44.64    668
44.66    677
44.68    659
44.7     504
44.72    475
44.74    428
44.76    479
44.78    488
44.8     517
44.82    600
44.84    702
44.86    804
44.88    866
44.9     890
44.92    1060
44.94    1218
44.96    1495
44.98    1781
45.0     2145
45.02    2467
45.04    2601
45.06    2504
45.08    2278
45.1     1928
45.12    1569
45.14    1180
45.16    897
45.18    719
45.2     672
45.22    692
45.24    671
45.26    638
45.28    669
45.3     705
45.32    711
45.34    594
45.36    551
45.38    539
45.4     548
45.42    566
45.44    613
45.46    652
45.48    710
45.5     750
45.52    655
45.54    536
45.56    538
45.58    464
45.6     475
45.62    417
45.64    505
45.66    569
45.68    608
45.7     600
45.72    459
45.74    480
45.76    449
45.78    361
45.8     392
45.82    402
45.84    541
45.86    611
45.88    679
45.9     690
45.92    680
45.94    703
45.96    552
45.98    422
46.0     386
46.02    385
46.04    346
46.06    362
46.08    484
46.1     589
46.12    656
46.14    686
46.16    653
46.18    656
46.2     593
46.22    516
46.24    414
46.26    383
46.28    381
46.3     353
46.32    387
46.34    445
46.36    537
46.38    580
46.4     558
46.42    627
46.44    604
46.46    595
46.48    553
46.5     500
46.52    485
46.54    449
46.56    518
46.58    480
46.6     495
46.62    567
46.64    596
46.66    677
46.68    647
46.7     598
46.72    514
46.74    489
46.76    409
46.78    290
46.8     258
46.82    299
46.84    438
46.86    481
46.88    522
46.9     612
46.92    683
46.94    700
46.96    590
46.98    580
47.0     563
47.02    515
47.04    476
47.06    420
47.08    453
47.1     517
47.12    503
47.14    508
47.16    548
47.18    614
47.2     611
47.22    575
47.24    551
47.26    575
47.28    580
47.3     574
47.32    518
47.34    555
47.36    638
47.38    623
47.4     644
47.42    636
47.44    615
47.46    606
47.48    543
47.5     496
47.52    409
47.54    438
47.56    517
47.58    479
47.6     560
47.62    549
47.64    615
47.66    669
47.68    691
47.7     690
47.72    647
47.74    698
47.76    624
47.78    542
47.8     512
47.82    427
47.84    464
47.86    485
47.88    542
47.9     568
47.92    630
47.94    705
47.96    691
47.98    691
48.0     657
48.02    596
48.04    589
48.06    468
48.08    394
48.1     342
48.12    371
48.14    335
48.16    320
48.18    372
48.2     405
48.22    475
48.24    512
48.26    543
48.28    591
48.3     611
48.32    663
48.34    612
48.36    613
48.38    636
48.4     574
48.42    603
48.44    617
48.46    639
48.48    637
48.5     585
48.52    576
48.54    531
48.56    485
48.58    443
48.6     428
48.62    532
48.64    544
48.66    537
48.68    586
48.7     587
48.72    620
48.74    598
48.76    548
48.78    524
48.8     529
48.82    546
48.84    477
48.86    491
48.88    489
48.9     556
48.92    599
48.94    584
48.96    585
48.98    604
49.0     583
49.02    538
49.04    477
49.06    467
49.08    443
49.1     481
49.12    468
49.14    447
49.16    462
49.18    487
49.2     507
49.22    534
49.24    498
49.26    546
49.28    539
49.3     494
49.32    438
49.34    340
49.36    329
49.38    359
49.4     337
49.42    390
49.44    407
49.46    541
49.48    573
49.5     607
49.52    606
49.54    601
49.56    633
49.58    581
49.6     458
49.62    463
49.64    460
49.66    430
49.68    455
49.7     420
49.72    420
49.74    446
49.76    373
49.78    366
49.8     429
49.82    477
49.84    553
49.86    503
49.88    594
49.9     593
49.92    580
49.94    570
49.96    523
49.98    533
50.0     524
50.02    468
50.04    439
50.06    371
50.08    403
50.1     417
50.12    444
50.14    562
50.16    663
50.18    673
50.2     690
50.22    628
50.24    539
50.26    496
50.28    393
50.3     386
50.32    400
50.34    407
50.36    476
50.38    485
50.4     526
50.42    487
50.44    473
50.46    512
50.48    510
50.5     525
50.52    493
50.54    439
50.56    459
50.58    429
50.6     439
50.62    509
50.64    589
50.66    617
50.68    643
50.7     610
50.72    616
50.74    519
50.76    456
50.78    422
50.8     489
50.82    546
50.84    577
50.86    542
50.88    575
50.9     570
50.92    577
50.94    458
50.96    415
50.98    363
51.0     338
51.02    247
51.04    211
51.06    202
51.08    324
51.1     392
51.12    479
51.14    545
51.16    636
51.18    669
51.2     684
51.22    613
51.24    527
51.26    462
51.28    478
51.3     415
51.32    396
51.34    369
51.36    405
51.38    467
51.4     506
51.42    507
51.44    535
51.46    531
51.48    573
51.5     588
51.52    538
51.54    536
51.56    579
51.58    587
51.6     581
51.62    553
51.64    511
51.66    536
51.68    551
51.7     565
51.72    557
51.74    599
51.76    615
51.78    653
51.8     599
51.82    528
51.84    458
51.86    442
51.88    399
51.9     407
51.92    378
51.94    422
51.96    440
51.98    523
52.0     544
52.02    622
52.04    633
52.06    622
52.08    632
52.1     651
52.12    625
52.14    665
52.16    617
52.18    632
52.2     648
52.22    633
52.24    613
52.26    615
52.28    600
52.3     607
52.32    600
52.34    560
52.36    535
52.38    525
52.4     419
52.42    351
52.44    369
52.46    409
52.48    418
52.5     493
52.52    522
52.54    545
52.56    630
52.58    680
52.6     607
52.62    617
52.64    606
52.66    585
52.68    550
52.7     546
52.72    515
52.74    499
52.76    511
52.78    563
52.8     574
52.82    582
52.84    557
52.86    597
52.88    652
52.9     653
52.92    595
52.94    531
52.96    512
52.98    531
53.0     539
53.02    543
53.04    591
53.06    737
53.08    876
53.1     862
53.12    880
53.14    926
53.16    865
53.18    841
53.2     873
53.22    884
53.24    1002
53.26    1147
53.28    1300
53.3     1520
53.32    1888
53.34    2337
53.36    2947
53.38    3970
53.4     5439
53.42    7112
53.44    8565
53.46    9471
53.48    9665
53.5     9156
53.52    8025
53.54    6479
53.56    4822
53.58    3431
53.6     2584
53.62    2064
53.64    1694
53.66    1482
53.68    1302
53.7     1092
53.72    1052
53.74    922
53.76    832
53.78    756
53.8     723
53.82    620
53.84    640
53.86    660
53.88    686
53.9     629
53.92    660
53.94    632
53.96    665
53.98    680
54.0     672
54.02    617
54.04    616
54.06    573
54.08    529
54.1     458
54.12    422
54.14    399
54.16    457
54.18    553
54.2     576
54.22    584
54.24    595
54.26    617
54.28    592
54.3     549
54.32    535
54.34    492
54.36    516
54.38    531
54.4     469
54.42    417
54.44    402
54.46    399
54.48    358
54.5     388
54.52    419
54.54    410
54.56    384
54.58    465
54.6     450
54.62    434
54.64    450
54.66    457
54.68    462
54.7     524
54.72    515
54.74    532
54.76    511
54.78    534
54.8     439
54.82    370
54.84    370
54.86    384
54.88    359
54.9     365
54.92    438
54.94    514
54.96    562
54.98    529
55.0     431
55.02    431
55.04    501
55.06    523
55.08    417
55.1     418
55.12    479
55.14    530
55.16    549
55.18    475
55.2     426
55.22    452
55.24    541
55.26    519
55.28    399
55.3     427
55.32    445
55.34    485
55.36    522
55.38    510
55.4     511
55.42    516
55.44    573
55.46    563
55.48    511
55.5     481
55.52    492
55.54    541
55.56    574
55.58    577
55.6     576
55.62    551
55.64    650
55.66    641
55.68    590
55.7     516
55.72    478
55.74    511
55.76    508
55.78    483
55.8     471
55.82    454
55.84    530
55.86    464
55.88    431
55.9     356
55.92    353
55.94    421
55.96    453
55.98    458
56.0     440
56.02    434
56.04    482
56.06    551
56.08    548
56.1     502
56.12    551
56.14    591
56.16    586
56.18    528
56.2     461
56.22    445
56.24    515
56.26    521
56.28    436
56.3     481
56.32    538
56.34    632
56.36    652
56.38    627
56.4     623
56.42    597
56.44    611
56.46    515
56.48    448
56.5     476
56.52    425
56.54    457
56.56    492
56.58    524
56.6     559
56.62    609
56.64    641
56.66    602
56.68    576
56.7     532
56.72    489
56.74    494
56.76    557
56.78    625
56.8     666
56.82    712
56.84    681
56.86    652
56.88    589
56.9     542
56.92    507
56.94    504
56.96    511
56.98    499
57.0     465
57.02    475
57.04    456
57.06    444
57.08    442
57.1     487
57.12    534
57.14    606
57.16    629
57.18    610
57.2     607
57.22    613
57.24    556
57.26    501
57.28    468
57.3     480
57.32    530
57.34    572
57.36    543
57.38    620
57.4     675
57.42    681
57.44    631
57.46    608
57.48    585
57.5     561
57.52    587
57.54    542
57.56    478
57.58    543
57.6     530
57.62    551
57.64    557
57.66    650
57.68    682
57.7     758
57.72    863
57.74    834
57.76    854
57.78    877
57.8     927
57.82    915
57.84    911
57.86    951
57.88    952
57.9     1062
57.92    1098
57.94    1140
57.96    1266
57.98    1422
58.0     1600
58.02    1697
58.04    1874
58.06    2082
58.08    2326
58.1     2689
58.12    3168
58.14    3920
58.16    5075
58.18    6878
58.2     9428
58.22    12908
58.24    16852
58.26    20301
58.28    22603
58.3     23201
58.32    22065
58.34    19400
58.36    15725
58.38    11799
58.4     8265
58.42    5840
58.44    4292
58.46    3233
58.48    2586
58.5     2043
58.52    1787
58.54    1666
58.56    1591
58.58    1536
58.6     1429
58.62    1384
58.64    1330
58.66    1281
58.68    1156
58.7     948
58.72    831
58.74    734
58.76    672
58.78    629
58.8     585
58.82    604
58.84    722
58.86    856
58.88    896
58.9     908
58.92    933
58.94    925
58.96    906
58.98    805
59.0     709
59.02    619
59.04    524
59.06    498
59.08    444
59.1     416
59.12    440
59.14    490
59.16    483
59.18    457
59.2     532
59.22    581
59.24    601
59.26    671
59.28    675
59.3     675
59.32    724
59.34    725
59.36    658
59.38    574
59.4     538
59.42    497
59.44    473
59.46    487
59.48    454
59.5     498
59.52    526
59.54    604
59.56    673
59.58    664
59.6     636
59.62    637
59.64    643
59.66    585
59.68    575
59.7     525
59.72    443
59.74    437
59.76    413
59.78    377
59.8     354
59.82    437
59.84    493
59.86    539
59.88    640
59.9     646
59.92    630
59.94    652
59.96    668
59.98    632
60.0     590
60.02    539
60.04    552
60.06    537
60.08    597
60.1     611
60.12    556
60.14    609
60.16    606
60.18    618
60.2     523
60.22    410
60.24    391
60.26    383
60.28    483
60.3     462
60.32    474
60.34    497
60.36    545
60.38    626
60.4     602
60.42    580
60.44    530
60.46    516
60.48    564
60.5     542
60.52    492
60.54    428
60.56    432
60.58    431
60.6     419
60.62    400
60.64    364
60.66    352
60.68    434
60.7     477
60.72    504
60.74    565
60.76    627
60.78    631
60.8     661
60.82    681
60.84    620
60.86    572
60.88    530
60.9     515
60.92    492
60.94    489
60.96    420
60.98    378
61.0     404
61.02    380
61.04    352
61.06    375
61.08    397
61.1     492
61.12    508
61.14    622
61.16    637
61.18    720
61.2     699
61.22    719
61.24    741
61.26    679
61.28    554
61.3     476
61.32    339
61.34    312
61.36    321
61.38    324
61.4     387
61.42    527
61.44    643
61.46    692
61.48    733
61.5     794
61.52    752
61.54    772
61.56    741
61.58    602
61.6     610
61.62    485
61.64    484
61.66    486
61.68    530
61.7     576
61.72    641
61.74    800
61.76    835
61.78    909
61.8     1050
61.82    1094
61.84    1236
61.86    1282
61.88    1359
61.9     1434
61.92    1669
61.94    2029
61.96    2474
61.98    3352
62.0     4888
62.02    7361
62.04    11120
62.06    15707
62.08    20296
62.1     23885
62.12    25777
62.14    25440
62.16    22957
62.18    18920
62.2     14152
62.22    9769
62.24    6479
62.26    4417
62.28    3158
62.3     2430
62.32    2062
62.34    1809
62.36    1677
62.38    1569
62.4     1434
62.42    1368
62.44    1267
62.46    1176
62.48    1003
62.5     818
62.52    712
62.54    609
62.56    545
62.58    524
62.6     540
62.62    591
62.64    714
62.66    718
62.68    772
62.7     783
62.72    763
62.74    707
62.76    597
62.78    536
62.8     457
62.82    363
62.84    366
62.86    297
62.88    302
62.9     346
62.92    400
62.94    489
62.96    589
62.98    667
63.0     704
63.02    712
63.04    799
63.06    765
63.08    729
63.1     692
63.12    633
63.14    556
63.16    514
63.18    422
63.2     375
63.22    267
63.24    288
63.26    290
63.28    356
63.3     415
63.32    529
63.34    572
63.36    609
63.38    638
63.4     670
63.42    557
63.44    575
63.46    529
63.48    490
63.5     441
63.52    484
63.54    484
63.56    423
63.58    425
63.6     454
63.62    418
63.64    503
63.66    486
63.68    562
63.7     630
63.72    682
63.74    756
63.76    702
63.78    616
63.8     585
63.82    486
63.84    464
63.86    377
63.88    407
63.9     410
63.92    408
63.94    521
63.96    520
63.98    441
64.0     477
64.02    528
64.04    662
64.06    660
64.08    674
64.1     622
64.12    619
64.14    635
64.16    566
64.18    437
64.2     419
64.22    400
64.24    397
64.26    388
64.28    467
64.3     423
64.32    528
64.34    632
64.36    610
64.38    584
64.4     568
64.42    566
64.44    575
64.46    618
64.48    694
64.5     709
64.52    794
64.54    881
64.56    882
64.58    950
64.6     1011
64.62    1075
64.64    1201
64.66    1437
64.68    1854
64.7     2518
64.72    3416
64.74    4458
64.76    5442
64.78    6154
64.8     6520
64.82    6326
64.84    5716
64.86    4764
64.88    3761
64.9     2820
64.92    2167
64.94    1678
64.96    1346
64.98    1100
65.0     981
65.02    882
65.04    765
65.06    673
65.08    648
65.1     506
65.12    523
65.14    482
65.16    438
65.18    489
65.2     473
65.22    583
65.24    629
65.26    643
65.28    611
65.3     546
65.32    545
65.34    501
65.36    445
65.38    441
65.4     376
65.42    366
65.44    350
65.46    304
65.48    353
65.5     334
65.52    442
65.54    483
65.56    507
65.58    543
65.6     610
65.62    545
65.64    515
65.66    466
65.68    500
65.7     357
65.72    380
65.74    322
65.76    293
65.78    303
65.8     358
65.82    378
65.84    469
65.86    489
65.88    539
65.9     536
65.92    501
65.94    549
65.96    519
65.98    535
66.0     543
66.02    543
66.04    547
66.06    429
66.08    402
66.1     412
66.12    400
66.14    505
66.16    522
66.18    529
66.2     500
66.22    501
66.24    515
66.26    456
66.28    411
66.3     390
66.32    299
66.34    283
66.36    245
66.38    225
66.4     241
66.42    310
66.44    411
66.46    461
66.48    516
66.5     591
66.52    501
66.54    503
66.56    443
66.58    411
66.6     355
66.62    308
66.64    346
66.66    359
66.68    397
66.7     482
66.72    478
66.74    530
66.76    513
66.78    484
66.8     454
66.82    386
66.84    334
66.86    284
66.88    325
66.9     340
66.92    379
66.94    432
66.96    437
66.98    459
67.0     444
67.02    365
67.04    320
67.06    323
67.08    369
67.1     384
67.12    447
67.14    449
67.16    493
67.18    502
67.2     458
67.22    479
67.24    510
67.26    538
67.28    514
67.3     499
67.32    506
67.34    428
67.36    436
67.38    410
67.4     426
67.42    419
67.44    449
67.46    462
67.48    469
67.5     437
67.52    477
67.54    435
67.56    463
67.58    450
67.6     419
67.62    389
67.64    427
67.66    421
67.68    432
67.7     356
67.72    327
67.74    330
67.76    361
67.78    341
67.8     367
67.82    418
67.84    453
67.86    457
67.88    446
67.9     443
67.92    486
67.94    492
67.96    495
67.98    494
68.0     550
68.02    543
68.04    514
68.06    443
68.08    393
68.1     401
68.12    446
68.14    426
68.16    399
68.18    397
68.2     423
68.22    444
68.24    440
68.26    472
68.28    513
68.3     542
68.32    592
68.34    578
68.36    544
68.38    471
68.4     420
68.42    432
68.44    395
68.46    399
68.48    382
68.5     376
68.52    417
68.54    394
68.56    406
68.58    417
68.6     442
68.62    493
68.64    540
68.66    622
68.68    704
68.7     780
68.72    843
68.74    828
68.76    828
68.78    828
68.8     825
68.82    917
68.84    1052
68.86    1293
68.88    1641
68.9     2131
68.92    2897
68.94    3819
68.96    4772
68.98    5601
69.0     6133
69.02    6209
69.04    5848
69.06    5161
69.08    4244
69.1     3302
69.12    2518
69.14    1927
69.16    1525
69.18    1309
69.2     1125
69.22    945
69.24    843
69.26    741
69.28    685
69.3     640
69.32    621
69.34    602
69.36    591
69.38    545
69.4     545
69.42    497
69.44    496
69.46    517
69.48    499
69.5     479
69.52    519
69.54    506
69.56    471
69.58    437
69.6     480
69.62    460
69.64    452
69.66    483
69.68    447
69.7     421
69.72    426
69.74    409
69.76    394
69.78    474
69.8     473
69.82    463
69.84    436
69.86    457
69.88    448
69.9     441
69.92    413
69.94    432
69.96    436
69.98    445
70.0     436
70.02    438
70.04    447
70.06    426
70.08    518
70.1     544
70.12    569
70.14    538
70.16    569
70.18    566
70.2     568
70.22    538
70.24    488
70.26    463
70.28    455
70.3     406
70.32    412
70.34    423
70.36    473
70.38    537
70.4     623
70.42    675
70.44    694
70.46    759
70.48    825
70.5     1017
70.52    1297
70.54    1602
70.56    1941
70.58    2349
70.6     2685
70.62    2895
70.64    2928
70.66    2891
70.68    2646
70.7     2309
70.72    1879
70.74    1524
70.76    1147
70.78    924
70.8     748
70.82    730
70.84    705
70.86    712
70.88    681
70.9     624
70.92    604
70.94    588
70.96    519
70.98    528
71.0     533
71.02    519
71.04    466
71.06    461
71.08    474
71.1     485
71.12    556
71.14    556
71.16    587
71.18    560
71.2     577
71.22    534
71.24    534
71.26    486
71.28    469
71.3     382
71.32    331
71.34    245
71.36    216
71.38    230
71.4     265
71.42    301
71.44    319
71.46    423
71.48    498
71.5     480
71.52    494
71.54    555
71.56    619
71.58    604
71.6     579
71.62    495
71.64    452
71.66    520
71.68    496
71.7     480
71.72    468
71.74    467
71.76    412
71.78    349
71.8     337
71.82    331
71.84    360
71.86    434
71.88    456
71.9     490
71.92    527
71.94    545
71.96    541
71.98    532
72.0     537
72.02    549
72.04    604
72.06    650
72.08    639
72.1     642
72.12    635
72.14    615
72.16    512
72.18    509
72.2     512
72.22    525
72.24    575
72.26    604
72.28    718
72.3     825
72.32    980
72.34    1203
72.36    1499
72.38    1957
72.4     2455
72.42    3166
72.44    4061
72.46    5136
72.48    6236
72.5     7056
72.52    7493
72.54    7504
72.56    7008
72.58    6079
72.6     4932
72.62    3879
72.64    3012
72.66    2354
72.68    1884
72.7     1511
72.72    1248
72.74    1165
72.76    1031
72.78    957
72.8     946
72.82    959
72.84    904
72.86    826
72.88    770
72.9     663
72.92    652
72.94    714
72.96    670
72.98    702
73.0     652
73.02    553
73.04    447
73.06    446
73.08    477
73.1     496
73.12    560
73.14    576
73.16    580
73.18    581
73.2     531
73.22    480
73.24    507
73.26    559
73.28    566
73.3     627
73.32    753
73.34    909
73.36    1122
73.38    1305
73.4     1480
73.42    1569
73.44    1563
73.46    1427
73.48    1219
73.5     1023
73.52    879
73.54    753
73.56    699
73.58    661
73.6     669
73.62    695
73.64    690
73.66    669
73.68    603
73.7     520
73.72    461
73.74    433
73.76    426
73.78    395
73.8     409
73.82    388
73.84    408
73.86    383
73.88    388
73.9     458
73.92    511
73.94    561
73.96    580
73.98    654
74.0     729
74.02    745
74.04    838
74.06    865
74.08    998
74.1     1095
74.12    1218
74.14    1382
74.16    1686
74.18    2072
74.2     2490
74.22    2852
74.24    3093
74.26    3204
74.28    3132
74.3     2797
74.32    2481
74.34    2105
74.36    1745
74.38    1403
74.4     1244
74.42    1168
74.44    1109
74.46    1116
74.48    1047
74.5     958
74.52    924
74.54    806
74.56    639
74.58    573
74.6     641
74.62    654
74.64    631
74.66    638
74.68    640
74.7     666
74.72    737
74.74    864
74.76    1070
74.78    1406
74.8     1781
74.82    2098
74.84    2485
74.86    2847
74.88    2991
74.9     3016
74.92    2910
74.94    2676
74.96    2317
74.98    1963
75.0     1636
75.02    1395
75.04    1281
75.06    1138
75.08    986
75.1     958
75.12    917
75.14    850
75.16    774
75.18    777
75.2     746
75.22    734
75.24    647
75.26    565
75.28    505
75.3     503
75.32    421
75.34    343
75.36    332
75.38    383
75.4     370
75.42    422
75.44    430
75.46    474
75.48    466
75.5     534
75.52    568
75.54    589
75.56    625
75.58    624
75.6     542
75.62    527
75.64    500
75.66    465
75.68    435
75.7     452
75.72    474
75.74    419
75.76    341
75.78    266
75.8     235
75.82    206
75.84    224
75.86    252
75.88    283
75.9     269
75.92    283
75.94    289
75.96    314
75.98    378
76.0     445
76.02    426
76.04    527
76.06    534
76.08    602
76.1     581
76.12    598
76.14    594
76.16    619
76.18    640
76.2     577
76.22    502
76.24    478
76.26    331
76.28    336
76.3     247
76.32    199
76.34    166
76.36    211
76.38    259
76.4     271
76.42    337
76.44    403
76.46    481
76.48    603
76.5     576
76.52    620
76.54    604
76.56    576
76.58    539
76.6     531
76.62    510
76.64    446
76.66    417
76.68    351
76.7     276
76.72    281
76.74    223
76.76    215
76.78    250
76.8     323
76.82    323
76.84    345
76.86    430
76.88    487
76.9     609
76.92    691
76.94    700
76.96    707
76.98    699
77.0     647
77.02    544
77.04    534
77.06    507
77.08    466
77.1     526
77.12    501
77.14    492
77.16    470
77.18    538
77.2     586
77.22    651
77.24    751
77.26    821
77.28    974
77.3     1107
77.32    1187
77.34    1293
77.36    1376
77.38    1662
77.4     2062
77.42    2565
77.44    3320
77.46    4421
77.48    5673
77.5     6884
77.52    7843
77.54    8381
77.56    8511
77.58    8114
77.6     7242
77.62    5982
77.64    4748
77.66    3715
77.68    2805
77.7     2172
77.72    1715
77.74    1481
77.76    1392
77.78    1217
77.8     1041
77.82    851
77.84    738
77.86    702
77.88    651
77.9     651
77.92    681
77.94    681
77.96    690
77.98    639
78.0     596
78.02    597
78.04    593
78.06    582
78.08    503
78.1     445
78.12    397
78.14    362
78.16    393
78.18    455
78.2     456
78.22    492
78.24    470
78.26    448
78.28    388
78.3     381
78.32    438
78.34    505
78.36    517
78.38    553
78.4     497
78.42    407
78.44    472
78.46    453
78.48    438
78.5     422
78.52    434
78.54    412
78.56    336
78.58    291
78.6     247
78.62    239
78.64    346
78.66    296
78.68    347
78.7     369
78.72    405
78.74    409
78.76    381
78.78    398
78.8     414
78.82    421
78.84    406
78.86    408
78.88    416
78.9     407
78.92    366
78.94    347
78.96    363
78.98    399
79.0     453
79.02    427
79.04    460
79.06    476
79.08    437
79.1     412
79.12    353
79.14    360
79.16    332
79.18    323
79.2     348
79.22    358
79.24    325
79.26    314
79.28    346
79.3     344
79.32    329
79.34    325
79.36    285
79.38    268
79.4     340
79.42    382
79.44    345
79.46    405
79.48    465
79.5     426
79.52    386
79.54    347
79.56    315
79.58    263
79.6     351
79.62    363
79.64    397
79.66    431
79.68    450
79.7     415
79.72    372
79.74    397
79.76    386
79.78    353
79.8     443
79.82    486
79.84    499
79.86    512
79.88    563
79.9     595
79.92    630
79.94    753
79.96    769
79.98    748
80.0     739
80.02    692
80.04    591
80.06    500
80.08    481
80.1     494
80.12    433
80.14    466
80.16    445
80.18    413
80.2     382
80.22    434
80.24    434
80.26    402
80.28    410
80.3     453
80.32    390
80.34    375
80.36    389
80.38    403
80.4     369
80.42    420
80.44    411
80.46    361
80.48    342
80.5     369
80.52    339
80.54    249
80.56    293
80.58    249
80.6     179
80.62    177
80.64    161
80.66    208
80.68    262
80.7     326
80.72    346
80.74    388
80.76    475
80.78    488
80.8     446
80.82    450
80.84    468
80.86    499
80.88    504
80.9     443
80.92    422
80.94    407
80.96    376
80.98    365
81.0     330
81.02    370
81.04    391
81.06    396
81.08    386
81.1     320
81.12    326
81.14    294
81.16    271
81.18    274
81.2     302
81.22    328
81.24    281
81.26    317
81.28    278
81.3     313
81.32    376
81.34    422
81.36    431
81.38    411
81.4     440
81.42    433
81.44    357
81.46    345
81.48    299
81.5     376
81.52    388
81.54    413
81.56    413
81.58    378
81.6     402
81.62    364
81.64    351
81.66    294
81.68    276
81.7     283
81.72    270
81.74    301
81.76    339
81.78    344
81.8     350
81.82    391
81.84    422
81.86    357
81.88    339
81.9     366
81.92    352
81.94    371
81.96    422
81.98    434
82.0     421
82.02    449
82.04    427
82.06    359
82.08    352
82.1     352
82.12    319
82.14    319
82.16    314
82.18    275
82.2     206
82.22    168
82.24    177
82.26    182
82.28    227
82.3     285
82.32    309
82.34    331
82.36    299
82.38    296
82.4     256
82.42    254
82.44    374
82.46    506
82.48    585
82.5     629
82.52    589
82.54    627
82.56    602
82.58    586
82.6     522
82.62    484
82.64    501
82.66    521
82.68    446
82.7     349
82.72    294
82.74    357
82.76    346
82.78    369
82.8     346
82.82    301
82.84    324
82.86    313
82.88    274
82.9     272
82.92    291
82.94    349
82.96    303
82.98    284
83.0     270
83.02    283
83.04    369
83.06    388
83.08    429
83.1     449
83.12    439
83.14    435
83.16    374
83.18    308
83.2     307
83.22    328
83.24    351
83.26    364
83.28    326
83.3     285
83.32    318
83.34    282
83.36    326
83.38    301
83.4     335
83.42    371
83.44    407
83.46    424
83.48    352
83.5     362
83.52    391
83.54    387
83.56    393
83.58    356
83.6     385
83.62    379
83.64    428
83.66    415
83.68    359
83.7     378
83.72    430
83.74    517
83.76    477
83.78    462
83.8     423
83.82    405
83.84    405
83.86    296
83.88    252
83.9     259
83.92    332
83.94    408
83.96    432
83.98    355
84.0     366
84.02    441
84.04    423
84.06    378
84.08    431
84.1     484
84.12    517
84.14    529
84.16    474
84.18    390
84.2     401
84.22    398
84.24    377
84.26    363
84.28    371
84.3     386
84.32    376
84.34    349
84.36    264
84.38    255
84.4     244
84.42    284
84.44    324
84.46    356
84.48    366
84.5     357
84.52    396
84.54    375
84.56    352
84.58    376
84.6     371
84.62    458
84.64    515
84.66    575
84.68    612
84.7     621
84.72    666
84.74    688
84.76    760
84.78    713
84.8     634
84.82    582
84.84    511
84.86    483
84.88    429
84.9     406
84.92    432
84.94    413
84.96    390
84.98    329
85.0     265
85.02    183
85.04    204
85.06    259
85.08    353
85.1     467
85.12    571
85.14    556
85.16    507
85.18    476
85.2     436
85.22    379
85.24    346
85.26    353
85.28    405
85.3     395
85.32    396
85.34    300
85.36    267
85.38    210
85.4     239
85.42    339
85.44    376
85.46    331
85.48    289
85.5     318
85.52    325
85.54    316
85.56    365
85.58    365
85.6     472
85.62    599
85.64    537
85.66    410
85.68    324
85.7     319
85.72    328
85.74    330
85.76    316
85.78    362
85.8     369
85.82    420
85.84    388
85.86    328
85.88    258
85.9     242
85.92    247
85.94    315
85.96    386
85.98    450
86.0     451
86.02    532
86.04    567
86.06    558
86.08    512
86.1     502
86.12    480
86.14    551
86.16    519
86.18    508
86.2     424
86.22    374
86.24    440
86.26    464
86.28    525
86.3     642
86.32    771
86.34    997
86.36    1151
86.38    1357
86.4     1460
86.42    1520
86.44    1599
86.46    1597
86.48    1568
86.5     1419
86.52    1268
86.54    1147
86.56    983
86.58    885
86.6     768
86.62    676
86.64    637
86.66    598
86.68    560
86.7     485
86.72    450
86.74    386
86.76    337
86.78    278
86.8     224
86.82    185
86.84    162
86.86    152
86.88    214
86.9     225
86.92    277
86.94    292
86.96    417
86.98    393
87.0     414
87.02    443
87.04    462
87.06    530
87.08    583
87.1     594
87.12    561
87.14    516
87.16    532
87.18    418
87.2     377
87.22    324
87.24    296
87.26    331
87.28    318
87.3     369
87.32    280
87.34    290
87.36    253
87.38    242
87.4     214
87.42    218
87.44    251
87.46    303
87.48    355
87.5     417
87.52    382
87.54    417
87.56    452
87.58    481
87.6     490
87.62    463
87.64    441
87.66    407
87.68    404
87.7     336
87.72    339
87.74    299
87.76    356
87.78    330
87.8     353
87.82    310
87.84    310
87.86    257
87.88    289
87.9     323
87.92    342
87.94    351
87.96    388
87.98    388
88.0     415
88.02    412
88.04    360
88.06    318
88.08    288
88.1     318
88.12    265
88.14    314
88.16    275
88.18    269
88.2     338
88.22    320
88.24    287
88.26    279
88.28    271
88.3     293
88.32    307
88.34    325
88.36    351
88.38    385
88.4     443
88.42    411
88.44    457
88.46    449
88.48    420
88.5     380
88.52    330
88.54    295
88.56    301
88.58    303
88.6     330
88.62    386
88.64    439
88.66    440
88.68    442
88.7     429
88.72    350
88.74    279
88.76    272
88.78    347
88.8     376
88.82    371
88.84    393
88.86    413
88.88    435
88.9     440
88.92    400
88.94    398
88.96    467
88.98    495
89.0     475
89.02    460
89.04    441
89.06    349
89.08    306
89.1     274
89.12    287
89.14    331
89.16    403
89.18    435
89.2     522
89.22    475
89.24    417
89.26    348
89.28    270
89.3     243
89.32    310
89.34    313
89.36    382
89.38    378
89.4     402
89.42    334
89.44    345
89.46    298
89.48    260
89.5     331
89.52    407
89.54    405
89.56    499
89.58    484
89.6     478
89.62    513
89.64    525
89.66    568
89.68    610
89.7     660
89.72    676
89.74    594
89.76    563
89.78    511
89.8     485
89.82    452
89.84    422
89.86    423
89.88    421
89.9     434
89.92    345
89.94    329
89.96    373
89.98    349
90.0     337
