?
5.0      863
5.02     863
5.04     1122
5.06     990
5.08     1031
5.1      967
5.12     1012
5.14     1022
5.16     1050
5.18     1029
5.2      1032
5.22     1028
5.24     1010
5.26     968
5.28     941
5.3      951
5.32     944
5.34     1005
5.36     1001
5.38     1031
5.4      1012
5.42     1036
5.44     1062
5.46     1046
5.48     1051
5.5      1066
5.52     1028
5.54     1031
5.56     1061
5.58     1041
5.6      1015
5.62     1041
5.64     1034
5.66     996
5.68     1018
5.7      975
5.72     955
5.74     989
5.76     1036
5.78     1026
5.8      1064
5.82     1068
5.84     1073
5.86     1045
5.88     1061
5.9      995
5.92     979
5.94     979
5.96     950
5.98     943
6.0      936
6.02     947
6.04     970
6.06     968
6.08     996
6.1      993
6.12     1021
6.14     999
6.16     1022
6.18     1012
6.2      1031
6.22     1060
6.24     1030
6.26     1031
6.28     1000
6.3      1025
6.32     1017
6.34     961
6.36     975
6.38     934
6.4      953
6.42     926
6.44     922
6.46     944
6.48     940
6.5      1007
6.52     1031
6.54     1019
6.56     1033
6.58     1005
6.6      986
6.62     948
6.64     899
6.66     902
6.68     861
6.7      888
6.72     906
6.74     897
6.76     920
6.78     904
6.8      925
6.82     938
6.84     904
6.86     930
6.88     893
6.9      951
6.92     932
6.94     934
6.96     950
6.98     916
7.0      918
7.02     945
7.04     930
7.06     905
7.08     901
7.1      895
7.12     903
7.14     903
7.16     891
7.18     874
7.2      843
7.22     889
7.24     856
7.26     862
7.28     824
7.3      805
7.32     824
7.34     810
7.36     747
7.38     782
7.4      779
7.42     833
7.44     792
7.46     856
7.48     813
7.5      824
7.52     823
7.54     840
7.56     786
7.58     821
7.6      850
7.62     836
7.64     810
7.66     859
7.68     854
7.7      852
7.72     848
7.74     877
7.76     894
7.78     868
7.8      853
7.82     827
7.84     810
7.86     793
7.88     770
7.9      686
7.92     689
7.94     679
7.96     715
7.98     716
8.0      766
8.02     848
8.04     866
8.06     902
8.08     855
8.1      859
8.12     847
8.14     767
8.16     791
8.18     767
8.2      744
8.22     772
8.24     768
8.26     773
8.28     749
8.3      771
8.32     783
8.34     727
8.36     735
8.38     734
8.4      723
8.42     722
8.44     747
8.46     760
8.48     751
8.5      762
8.52     801
8.54     745
8.56     724
8.58     728
8.6      693
8.62     667
8.64     711
8.66     726
8.68     748
8.7      791
8.72     818
8.74     781
8.76     757
8.78     721
8.8      713
8.82     676
8.84     629
8.86     627
8.88     695
8.9      685
8.92     724
8.94     714
8.96     760
8.98     737
9.0      739
9.02     693
9.04     691
9.06     701
9.08     684
9.1      625
9.12     681
9.14     643
9.16     674
9.18     638
9.2      645
9.22     717
9.24     721
9.26     695
9.28     680
9.3      685
9.32     711
9.34     656
9.36     638
9.38     588
9.4      561
9.42     629
9.44     589
9.46     615
9.48     655
9.5      663
9.52     682
9.54     688
9.56     666
9.58     602
9.6      594
9.62     610
9.64     552
9.66     573
9.68     545
9.7      537
9.72     542
9.74     567
9.76     570
9.78     569
9.8      657
9.82     669
9.84     623
9.86     650
9.88     602
9.9      566
9.92     578
9.94     597
9.96     587
9.98     593
10.0     653
10.02    685
10.04    713
10.06    695
10.08    677
10.1     638
10.12    658
10.14    630
10.16    581
10.18    562
10.2     564
10.22    616
10.24    674
10.26    616
10.28    619
10.3     595
10.32    597
10.34    604
10.36    605
10.38    635
10.4     629
10.42    667
10.44    684
10.46    638
10.48    628
10.5     648
10.52    669
10.54    660
10.56    655
10.58    661
10.6     666
10.62    642
10.64    634
10.66    618
10.68    644
10.7     644
10.72    672
10.74    664
10.76    686
10.78    698
10.8     671
10.82    616
10.84    649
10.86    635
10.88    662
10.9     635
10.92    681
10.94    743
10.96    730
10.98    747
11.0     759
11.02    683
11.04    686
11.06    657
11.08    662
11.1     679
11.12    672
11.14    709
11.16    693
11.18    715
11.2     788
11.22    709
11.24    710
11.26    741
11.28    697
11.3     724
11.32    700
11.34    698
11.36    718
11.38    725
11.4     720
11.42    699
11.44    724
11.46    751
11.48    742
11.5     793
11.52    764
11.54    764
11.56    796
11.58    808
11.6     773
11.62    812
11.64    837
11.66    817
11.68    846
11.7     885
11.72    815
11.74    851
11.76    862
11.78    899
11.8     914
11.82    913
11.84    855
11.86    857
11.88    912
11.9     947
11.92    912
11.94    953
11.96    923
11.98    941
12.0     874
12.02    833
12.04    816
12.06    837
12.08    875
12.1     890
12.12    918
12.14    894
12.16    863
12.18    845
12.2     810
12.22    835
12.24    892
12.26    896
12.28    879
12.3     940
12.32    967
12.34    935
12.36    909
12.38    894
12.4     887
12.42    893
12.44    919
12.46    898
12.48    876
12.5     922
12.52    933
12.54    936
12.56    904
12.58    920
12.6     930
12.62    890
12.64    848
12.66    831
12.68    846
12.7     806
12.72    855
12.74    874
12.76    864
12.78    908
12.8     976
12.82    927
12.84    859
12.86    898
12.88    922
12.9     903
12.92    978
12.94    965
12.96    952
12.98    985
13.0     1049
13.02    1003
13.04    922
13.06    903
13.08    906
13.1     902
13.12    915
13.14    871
13.16    868
13.18    918
13.2     901
13.22    894
13.24    870
13.26    846
13.28    903
13.3     944
13.32    922
13.34    903
13.36    969
13.38    1002
13.4     889
13.42    885
13.44    905
13.46    901
13.48    915
13.5     957
13.52    914
13.54    928
13.56    971
13.58    920
13.6     905
13.62    927
13.64    948
13.66    962
13.68    937
13.7     921
13.72    849
13.74    870
13.76    844
13.78    864
13.8     897
13.82    937
13.84    934
13.86    967
13.88    950
13.9     913
13.92    866
13.94    889
13.96    854
13.98    866
14.0     824
14.02    882
14.04    908
14.06    929
14.08    940
14.1     898
14.12    896
14.14    951
14.16    937
14.18    823
14.2     789
14.22    842
14.24    837
14.26    796
14.28    845
14.3     883
14.32    926
14.34    952
14.36    937
14.38    858
14.4     890
14.42    871
14.44    792
14.46    807
14.48    843
14.5     823
14.52    828
14.54    847
14.56    875
14.58    924
14.6     956
14.62    905
14.64    845
14.66    881
14.68    843
14.7     820
14.72    832
14.74    837
14.76    845
14.78    841
14.8     854
14.82    859
14.84    830
14.86    912
14.88    940
14.9     1006
14.92    1070
14.94    1085
14.96    1072
14.98    1049
15.0     1027
15.02    994
15.04    904
15.06    824
15.08    753
15.1     849
15.12    870
15.14    789
15.16    814
15.18    892
15.2     912
15.22    934
15.24    904
15.26    822
15.28    796
15.3     820
15.32    791
15.34    734
15.36    746
15.38    805
15.4     882
15.42    888
15.44    806
15.46    809
15.48    850
15.5     798
15.52    768
15.54    771
15.56    784
15.58    875
15.6     920
15.62    860
15.64    814
15.66    900
15.68    901
15.7     795
15.72    778
15.74    858
15.76    910
15.78    910
15.8     870
15.82    899
15.84    971
15.86    994
15.88    965
15.9     960
15.92    961
15.94    1081
15.96    1219
15.98    1187
16.0     1202
16.02    1386
16.04    1504
16.06    1505
16.08    1555
16.1     1585
16.12    1605
16.14    1740
16.16    1883
16.18    1977
16.2     2166
16.22    2452
16.24    2722
16.26    2978
16.28    3288
16.3     3681
16.32    4177
16.34    4777
16.36    5679
16.38    6773
16.4     8123
16.42    9755
16.44    11753
16.46    14311
16.48    17786
16.5     22540
16.52    28856
16.54    36635
16.56    44150
16.58    48799
16.6     49462
16.62    46011
16.64    39073
16.66    29944
16.68    20310
16.7     11994
16.72    6450
16.74    4015
16.76    3330
16.78    3009
16.8     2682
16.82    2410
16.84    2176
16.86    1964
16.88    1759
16.9     1701
16.92    1706
16.94    1681
16.96    1609
16.98    1533
17.0     1424
17.02    1342
17.04    1264
17.06    1180
17.08    1035
17.1     1056
17.12    1125
17.14    1130
17.16    1098
17.18    1079
17.2     1091
17.22    1083
17.24    1029
17.26    1005
17.28    947
17.3     949
17.32    927
17.34    941
17.36    938
17.38    961
17.4     923
17.42    865
17.44    823
17.46    853
17.48    841
17.5     792
17.52    807
17.54    890
17.56    906
17.58    914
17.6     859
17.62    842
17.64    809
17.66    790
17.68    752
17.7     716
17.72    684
17.74    723
17.76    723
17.78    736
17.8     800
17.82    820
17.84    810
17.86    804
17.88    827
17.9     841
17.92    798
17.94    801
17.96    776
17.98    817
18.0     781
18.02    668
18.04    645
18.06    635
18.08    661
18.1     688
18.12    709
18.14    694
18.16    759
18.18    822
18.2     779
18.22    748
18.24    787
18.26    797
18.28    744
18.3     768
18.32    754
18.34    711
18.36    728
18.38    764
18.4     736
18.42    700
18.44    710
18.46    686
18.48    612
18.5     654
18.52    627
18.54    651
18.56    689
18.58    706
18.6     669
18.62    672
18.64    692
18.66    677
18.68    636
18.7     688
18.72    726
18.74    724
18.76    711
18.78    701
18.8     727
18.82    783
18.84    812
18.86    792
18.88    752
18.9     755
18.92    764
18.94    741
18.96    703
18.98    708
19.0     733
19.02    731
19.04    743
19.06    659
19.08    618
19.1     628
19.12    673
19.14    743
19.16    728
19.18    744
19.2     681
19.22    676
19.24    725
19.26    682
19.28    624
19.3     616
19.32    643
19.34    671
19.36    624
19.38    587
19.4     522
19.42    606
19.44    649
19.46    603
19.48    579
19.5     652
19.52    776
19.54    785
19.56    718
19.58    654
19.6     624
19.62    666
19.64    681
19.66    660
19.68    696
19.7     715
19.72    733
19.74    672
19.76    664
19.78    622
19.8     664
19.82    709
19.84    757
19.86    773
19.88    765
19.9     698
19.92    689
19.94    699
19.96    712
19.98    595
20.0     612
20.02    613
20.04    598
20.06    574
20.08    528
20.1     484
20.12    584
20.14    590
20.16    628
20.18    578
20.2     587
20.22    570
20.24    531
20.26    558
20.28    549
20.3     557
20.32    615
20.34    584
20.36    681
20.38    690
20.4     645
20.42    622
20.44    629
20.46    643
20.48    638
20.5     608
20.52    583
20.54    546
20.56    650
20.58    759
20.6     777
20.62    774
20.64    754
20.66    686
20.68    685
20.7     661
20.72    626
20.74    579
20.76    682
20.78    701
20.8     643
20.82    582
20.84    579
20.86    557
20.88    595
20.9     582
20.92    571
20.94    618
20.96    693
20.98    700
21.0     695
21.02    707
21.04    727
21.06    706
21.08    678
21.1     602
21.12    576
21.14    564
21.16    556
21.18    570
21.2     534
21.22    554
21.24    550
21.26    572
21.28    527
21.3     507
21.32    531
21.34    524
21.36    556
21.38    559
21.4     578
21.42    690
21.44    749
21.46    748
21.48    701
21.5     651
21.52    633
21.54    554
21.56    486
21.58    368
21.6     390
21.62    447
21.64    486
21.66    452
21.68    446
21.7     414
21.72    460
21.74    508
21.76    547
21.78    557
21.8     610
21.82    605
21.84    588
21.86    542
21.88    503
21.9     470
21.92    453
21.94    562
21.96    573
21.98    565
22.0     452
22.02    408
22.04    391
22.06    417
22.08    452
22.1     508
22.12    528
22.14    620
22.16    642
22.18    642
22.2     535
22.22    511
22.24    519
22.26    494
22.28    502
22.3     486
22.32    500
22.34    525
22.36    596
22.38    530
22.4     498
22.42    533
22.44    597
22.46    548
22.48    560
22.5     546
22.52    609
22.54    605
22.56    584
22.58    508
22.6     476
22.62    501
22.64    520
22.66    477
22.68    486
22.7     487
22.72    497
22.74    441
22.76    446
22.78    418
22.8     408
22.82    410
22.84    462
22.86    437
22.88    498
22.9     530
22.92    502
22.94    467
22.96    459
22.98    472
23.0     506
23.02    506
23.04    546
23.06    465
23.08    481
23.1     474
23.12    497
23.14    549
23.16    543
23.18    571
23.2     553
23.22    577
23.24    559
23.26    474
23.28    444
23.3     405
23.32    457
23.34    463
23.36    468
23.38    429
23.4     412
23.42    432
23.44    507
23.46    503
23.48    481
23.5     411
23.52    438
23.54    486
23.56    525
23.58    540
23.6     519
23.62    500
23.64    535
23.66    524
23.68    541
23.7     555
23.72    554
23.74    559
23.76    515
23.78    502
23.8     455
23.82    412
23.84    407
23.86    414
23.88    457
23.9     477
23.92    425
23.94    470
23.96    505
23.98    517
24.0     511
24.02    494
24.04    513
24.06    464
24.08    448
24.1     419
24.12    443
24.14    473
24.16    453
24.18    418
24.2     453
24.22    512
24.24    566
24.26    542
24.28    542
24.3     515
24.32    535
24.34    470
24.36    419
24.38    393
24.4     494
24.42    520
24.44    564
24.46    510
24.48    525
24.5     507
24.52    519
24.54    537
24.56    526
24.58    501
24.6     506
24.62    485
24.64    499
24.66    488
24.68    516
24.7     526
24.72    551
24.74    623
24.76    640
24.78    592
24.8     549
24.82    518
24.84    486
24.86    477
24.88    481
24.9     449
24.92    445
24.94    479
24.96    440
24.98    359
25.0     361
25.02    352
25.04    379
25.06    411
25.08    461
25.1     416
25.12    424
25.14    441
25.16    437
25.18    438
25.2     505
25.22    563
25.24    615
25.26    632
25.28    614
25.3     557
25.32    487
25.34    443
25.36    419
25.38    404
25.4     412
25.42    456
25.44    445
25.46    467
25.48    456
25.5     490
25.52    451
25.54    471
25.56    440
25.58    469
25.6     461
25.62    469
25.64    427
25.66    450
25.68    434
25.7     518
25.72    551
25.74    562
25.76    515
25.78    502
25.8     438
25.82    478
25.84    474
25.86    466
25.88    445
25.9     457
25.92    451
25.94    409
25.96    394
25.98    365
26.0     352
26.02    452
26.04    476
26.06    519
26.08    555
26.1     550
26.12    482
26.14    435
26.16    319
26.18    279
26.2     261
26.22    373
26.24    453
26.26    583
26.28    661
26.3     651
26.32    565
26.34    496
26.36    382
26.38    372
26.4     369
26.42    429
26.44    439
26.46    481
26.48    490
26.5     436
26.52    398
26.54    401
26.56    409
26.58    432
26.6     435
26.62    412
26.64    397
26.66    379
26.68    413
26.7     378
26.72    367
26.74    411
26.76    421
26.78    458
26.8     496
26.82    520
26.84    542
26.86    466
26.88    473
26.9     435
26.92    463
26.94    490
26.96    462
26.98    426
27.0     408
27.02    387
27.04    367
27.06    276
27.08    354
27.1     421
27.12    567
27.14    593
27.16    506
27.18    400
27.2     372
27.22    407
27.24    475
27.26    469
27.28    515
27.3     492
27.32    517
27.34    448
27.36    371
27.38    376
27.4     405
27.42    489
27.44    514
27.46    448
27.48    358
27.5     271
27.52    275
27.54    356
27.56    489
27.58    575
27.6     621
27.62    618
27.64    579
27.66    489
27.68    404
27.7     323
27.72    381
27.74    478
27.76    514
27.78    482
27.8     478
27.82    415
27.84    384
27.86    368
27.88    389
27.9     388
27.92    473
27.94    494
27.96    488
27.98    478
28.0     443
28.02    407
28.04    340
28.06    333
28.08    354
28.1     385
28.12    455
28.14    475
28.16    535
28.18    511
28.2     518
28.22    505
28.24    405
28.26    340
28.28    373
28.3     390
28.32    441
28.34    433
28.36    468
28.38    448
28.4     453
28.42    427
28.44    358
28.46    330
28.48    374
28.5     364
28.52    430
28.54    477
28.56    552
28.58    549
28.6     471
28.62    395
28.64    339
28.66    339
28.68    303
28.7     273
28.72    297
28.74    319
28.76    406
28.78    457
28.8     469
28.82    519
28.84    555
28.86    566
28.88    516
28.9     484
28.92    450
28.94    417
28.96    491
28.98    495
29.0     517
29.02    514
29.04    445
29.06    372
29.08    358
29.1     376
29.12    469
29.14    529
29.16    574
29.18    548
29.2     488
29.22    412
29.24    321
29.26    285
29.28    332
29.3     377
29.32    480
29.34    495
29.36    455
29.38    407
29.4     371
29.42    374
29.44    380
29.46    439
29.48    475
29.5     489
29.52    497
29.54    443
29.56    381
29.58    358
29.6     363
29.62    357
29.64    352
29.66    384
29.68    406
29.7     405
29.72    351
29.74    326
29.76    318
29.78    377
29.8     408
29.82    396
29.84    380
29.86    400
29.88    396
29.9     382
29.92    368
29.94    393
29.96    420
29.98    494
30.0     513
30.02    521
30.04    476
30.06    493
30.08    492
30.1     480
30.12    526
30.14    521
30.16    534
30.18    518
30.2     474
30.22    473
30.24    448
30.26    474
30.28    440
30.3     424
30.32    474
30.34    449
30.36    408
30.38    394
30.4     326
30.42    369
30.44    401
30.46    397
30.48    341
30.5     358
30.52    384
30.54    431
30.56    414
30.58    442
30.6     420
30.62    477
30.64    467
30.66    412
30.68    397
30.7     417
30.72    404
30.74    517
30.76    495
30.78    476
30.8     504
30.82    485
30.84    432
30.86    349
30.88    361
30.9     347
30.92    327
30.94    403
30.96    394
30.98    415
31.0     519
31.02    472
31.04    462
31.06    401
31.08    384
31.1     426
31.12    433
31.14    448
31.16    404
31.18    353
31.2     335
31.22    275
31.24    298
31.26    286
31.28    330
31.3     384
31.32    428
31.34    492
31.36    464
31.38    466
31.4     494
31.42    517
31.44    540
31.46    483
31.48    496
31.5     443
31.52    475
31.54    540
31.56    489
31.58    510
31.6     559
31.62    589
31.64    546
31.66    508
31.68    508
31.7     463
31.72    502
31.74    516
31.76    460
31.78    431
31.8     448
31.82    444
31.84    372
31.86    374
31.88    348
31.9     362
31.92    428
31.94    474
31.96    466
31.98    464
32.0     476
32.02    472
32.04    505
32.06    516
32.08    534
32.1     524
32.12    526
32.14    523
32.16    464
32.18    506
32.2     486
32.22    504
32.24    543
32.26    518
32.28    499
32.3     508
32.32    512
32.34    522
32.36    554
32.38    574
32.4     540
32.42    523
32.44    460
32.46    426
32.48    423
32.5     442
32.52    458
32.54    553
32.56    541
32.58    490
32.6     440
32.62    423
32.64    433
32.66    476
32.68    554
32.7     597
32.72    690
32.74    716
32.76    668
32.78    627
32.8     578
32.82    609
32.84    630
32.86    635
32.88    590
32.9     572
32.92    586
32.94    547
32.96    628
32.98    640
33.0     660
33.02    684
33.04    662
33.06    598
33.08    542
33.1     535
33.12    506
33.14    576
33.16    631
33.18    679
33.2     726
33.22    700
33.24    721
33.26    732
33.28    787
33.3     850
33.32    962
33.34    1161
33.36    1327
33.38    1534
33.4     1740
33.42    1872
33.44    2213
33.46    2659
33.48    3440
33.5     4714
33.52    6528
33.54    8848
33.56    11103
33.58    12751
33.6     13452
33.62    12999
33.64    11621
33.66    9491
33.68    7149
33.7     4894
33.72    3242
33.74    2289
33.76    1678
33.78    1383
33.8     1204
33.82    1056
33.84    983
33.86    972
33.88    946
33.9     913
33.92    875
33.94    826
33.96    805
33.98    819
34.0     793
34.02    760
34.04    777
34.06    728
34.08    674
34.1     726
34.12    673
34.14    675
34.16    654
34.18    612
34.2     612
34.22    615
34.24    631
34.26    617
34.28    645
34.3     646
34.32    609
34.34    641
34.36    606
34.38    649
34.4     664
34.42    637
34.44    643
34.46    648
34.48    628
34.5     594
34.52    619
34.54    682
34.56    706
34.58    728
34.6     687
34.62    638
34.64    604
34.66    540
34.68    532
34.7     564
34.72    573
34.74    668
34.76    732
34.78    714
34.8     694
34.82    736
34.84    797
34.86    860
34.88    1048
34.9     1168
34.92    1274
34.94    1499
34.96    1671
34.98    2040
35.0     2751
35.02    4262
35.04    6434
35.06    9030
35.08    11381
35.1     12855
35.12    13192
35.14    12417
35.16    10574
35.18    8094
35.2     5497
35.22    3504
35.24    2210
35.26    1625
35.28    1314
35.3     1164
35.32    1043
35.34    1073
35.36    1049
35.38    973
35.4     914
35.42    891
35.44    848
35.46    823
35.48    769
35.5     697
35.52    634
35.54    638
35.56    626
35.58    662
35.6     740
35.62    806
35.64    796
35.66    776
35.68    697
35.7     637
35.72    623
35.74    653
35.76    720
35.78    847
35.8     910
35.82    857
35.84    790
35.86    693
35.88    571
35.9     521
35.92    587
35.94    643
35.96    720
35.98    838
36.0     896
36.02    888
36.04    847
36.06    815
36.08    793
36.1     805
36.12    920
36.14    992
36.16    1069
36.18    1141
36.2     1228
36.22    1311
36.24    1428
36.26    1720
36.28    2072
36.3     2628
36.32    3357
36.34    4411
36.36    6089
36.38    9016
36.4     13444
36.42    18780
36.44    23849
36.46    27322
36.48    28475
36.5     27200
36.52    23562
36.54    18356
36.56    12717
36.58    8020
36.6     4907
36.62    3204
36.64    2332
36.66    1807
36.68    1514
36.7     1450
36.72    1427
36.74    1407
36.76    1365
36.78    1335
36.8     1203
36.82    1015
36.84    891
36.86    765
36.88    668
36.9     754
36.92    852
36.94    919
36.96    952
36.98    1008
37.0     945
37.02    884
37.04    804
37.06    715
37.08    730
37.1     776
37.12    740
37.14    753
37.16    749
37.18    764
37.2     759
37.22    736
37.24    717
37.26    827
37.28    899
37.3     906
37.32    977
37.34    1134
37.36    1151
37.38    1175
37.4     1160
37.42    1007
37.44    831
37.46    697
37.48    552
37.5     469
37.52    481
37.54    496
37.56    537
37.58    615
37.6     677
37.62    644
37.64    607
37.66    581
37.68    620
37.7     658
37.72    641
37.74    646
37.76    678
37.78    594
37.8     541
37.82    482
37.84    414
37.86    395
37.88    478
37.9     534
37.92    616
37.94    719
37.96    725
37.98    617
38.0     553
38.02    492
38.04    392
38.06    380
38.08    467
38.1     503
38.12    591
38.14    642
38.16    620
38.18    531
38.2     490
38.22    495
38.24    493
38.26    531
38.28    621
38.3     661
38.32    657
38.34    669
38.36    596
38.38    536
38.4     483
38.42    501
38.44    471
38.46    472
38.48    464
38.5     509
38.52    486
38.54    526
38.56    483
38.58    511
38.6     450
38.62    449
38.64    464
38.66    517
38.68    521
38.7     569
38.72    580
38.74    595
38.76    550
38.78    555
38.8     524
38.82    523
38.84    556
38.86    552
38.88    523
38.9     490
38.92    470
38.94    461
38.96    466
38.98    493
39.0     539
39.02    573
39.04    625
39.06    654
39.08    646
39.1     612
39.12    563
39.14    549
39.16    528
39.18    486
39.2     478
39.22    471
39.24    522
39.26    542
39.28    510
39.3     510
39.32    490
39.34    489
39.36    487
39.38    566
39.4     555
39.42    591
39.44    638
39.46    582
39.48    532
39.5     576
39.52    621
39.54    613
39.56    614
39.58    659
39.6     583
39.62    540
39.64    508
39.66    470
39.68    514
39.7     636
39.72    699
39.74    711
39.76    683
39.78    626
39.8     498
39.82    374
39.84    355
39.86    405
39.88    508
39.9     575
39.92    645
39.94    745
39.96    733
39.98    697
40.0     662
40.02    659
40.04    657
40.06    694
40.08    736
40.1     705
40.12    766
40.14    799
40.16    793
40.18    805
40.2     832
40.22    862
40.24    843
40.26    849
40.28    847
40.3     805
40.32    863
40.34    903
40.36    933
40.38    922
40.4     965
40.42    998
40.44    941
40.46    933
40.48    872
40.5     788
40.52    794
40.54    796
40.56    767
40.58    817
40.6     880
40.62    931
40.64    982
40.66    1052
40.68    1056
40.7     1065
40.72    1106
40.74    1090
40.76    1080
40.78    1127
40.8     1150
40.82    1151
40.84    1197
40.86    1245
40.88    1264
40.9     1262
40.92    1295
40.94    1318
40.96    1334
40.98    1370
41.0     1439
41.02    1476
41.04    1595
41.06    1716
41.08    1744
41.1     1820
41.12    1916
41.14    2031
41.16    2094
41.18    2259
41.2     2554
41.22    2815
41.24    3196
41.26    3650
41.28    4195
41.3     4911
41.32    5794
41.34    6869
41.36    8224
41.38    10096
41.4     12964
41.42    17313
41.44    24580
41.46    36782
41.48    54731
41.5     74881
41.52    91938
41.54    101820
41.56    102478
41.58    93996
41.6     78285
41.62    58143
41.64    38123
41.66    22874
41.68    14292
41.7     10071
41.72    7753
41.74    6162
41.76    4906
41.78    4046
41.8     3590
41.82    3220
41.84    3008
41.86    2813
41.88    2589
41.9     2308
41.92    2045
41.94    1824
41.96    1671
41.98    1624
42.0     1616
42.02    1636
42.04    1648
42.06    1622
42.08    1535
42.1     1416
42.12    1270
42.14    1131
42.16    1023
42.18    989
42.2     953
42.22    1038
42.24    1103
42.26    1172
42.28    1176
42.3     1159
42.32    1105
42.34    983
42.36    917
42.38    867
42.4     838
42.42    923
42.44    1025
42.46    1063
42.48    1076
42.5     1074
42.52    968
42.54    858
42.56    762
42.58    759
42.6     729
42.62    792
42.64    855
42.66    834
42.68    839
42.7     833
42.72    791
42.74    763
42.76    762
42.78    838
42.8     843
42.82    854
42.84    832
42.86    794
42.88    748
42.9     768
42.92    734
42.94    731
42.96    791
42.98    844
43.0     888
43.02    872
43.04    868
43.06    862
43.08    834
43.1     841
43.12    816
43.14    792
43.16    829
43.18    853
43.2     914
43.22    949
43.24    966
43.26    972
43.28    940
43.3     901
43.32    841
43.34    764
43.36    732
43.38    660
43.4     716
43.42    721
43.44    712
43.46    754
43.48    744
43.5     719
43.52    685
43.54    737
43.56    739
43.58    676
43.6     713
43.62    741
43.64    758
43.66    833
43.68    827
43.7     810
43.72    783
43.74    779
43.76    692
43.78    588
43.8     584
43.82    620
43.84    604
43.86    659
43.88    627
43.9     598
43.92    617
43.94    616
43.96    615
43.98    632
44.0     653
44.02    671
44.04    654
44.06    632
44.08    562
44.1     534
44.12    549
44.14    570
44.16    601
44.18    681
44.2     696
44.22    725
44.24    707
44.26    719
44.28    756
44.3     721
44.32    741
44.34    707
44.36    664
44.38    650
44.4     583
44.42    503
44.44    417
44.46    416
44.48    447
44.5     453
44.52    566
44.54    583
44.56    634
44.58    668
44.6     737
44.62    743
44.64    745
44.66    802
44.68    835
44.7     837
44.72    783
44.74    707
44.76    662
44.78    592
44.8     559
44.82    536
44.84    586
44.86    677
44.88    781
44.9     872
44.92    913
44.94    1030
44.96    1284
44.98    1579
45.0     1918
45.02    2219
45.04    2407
45.06    2436
45.08    2314
45.1     2010
45.12    1597
45.14    1197
45.16    908
45.18    731
45.2     633
45.22    623
45.24    667
45.26    731
45.28    799
45.3     820
45.32    823
45.34    750
45.36    663
45.38    617
45.4     560
45.42    612
45.44    619
45.46    617
45.48    654
45.5     658
45.52    623
45.54    475
45.56    400
45.58    430
45.6     431
45.62    442
45.64    405
45.66    452
45.68    547
45.7     630
45.72    651
45.74    675
45.76    701
45.78    750
45.8     726
45.82    608
45.84    538
45.86    488
45.88    474
45.9     427
45.92    504
45.94    619
45.96    639
45.98    679
46.0     666
46.02    612
46.04    604
46.06    493
46.08    421
46.1     406
46.12    474
46.14    483
46.16    495
46.18    507
46.2     543
46.22    590
46.24    601
46.26    560
46.28    534
46.3     600
46.32    565
46.34    544
46.36    530
46.38    516
46.4     556
46.42    562
46.44    509
46.46    479
46.48    473
46.5     503
46.52    445
46.54    441
46.56    467
46.58    490
46.6     502
46.62    482
46.64    423
46.66    443
46.68    450
46.7     458
46.72    499
46.74    588
46.76    666
46.78    696
46.8     676
46.82    626
46.84    498
46.86    443
46.88    382
46.9     334
46.92    380
46.94    367
46.96    442
46.98    495
47.0     510
47.02    526
47.04    433
47.06    436
47.08    435
47.1     443
47.12    520
47.14    511
47.16    590
47.18    624
47.2     612
47.22    615
47.24    483
47.26    458
47.28    502
47.3     571
47.32    618
47.34    581
47.36    622
47.38    696
47.4     660
47.42    658
47.44    585
47.46    651
47.48    658
47.5     589
47.52    508
47.54    437
47.56    456
47.58    499
47.6     525
47.62    601
47.64    650
47.66    706
47.68    676
47.7     602
47.72    556
47.74    486
47.76    393
47.78    411
47.8     415
47.82    462
47.84    497
47.86    504
47.88    583
47.9     602
47.92    605
47.94    639
47.96    640
47.98    677
48.0     655
48.02    685
48.04    693
48.06    673
48.08    672
48.1     615
48.12    563
48.14    551
48.16    490
48.18    413
48.2     347
48.22    332
48.24    383
48.26    436
48.28    443
48.3     486
48.32    544
48.34    636
48.36    639
48.38    592
48.4     581
48.42    612
48.44    651
48.46    615
48.48    598
48.5     634
48.52    699
48.54    712
48.56    624
48.58    596
48.6     592
48.62    570
48.64    504
48.66    479
48.68    553
48.7     611
48.72    676
48.74    626
48.76    620
48.78    613
48.8     573
48.82    511
48.84    446
48.86    462
48.88    503
48.9     535
48.92    565
48.94    555
48.96    650
48.98    663
49.0     720
49.02    713
49.04    638
49.06    565
49.08    504
49.1     424
49.12    367
49.14    331
49.16    432
49.18    517
49.2     646
49.22    750
49.24    731
49.26    732
49.28    685
49.3     547
49.32    487
49.34    394
49.36    387
49.38    436
49.4     480
49.42    573
49.44    560
49.46    594
49.48    616
49.5     579
49.52    587
49.54    562
49.56    508
49.58    541
49.6     544
49.62    542
49.64    510
49.66    476
49.68    488
49.7     519
49.72    483
49.74    525
49.76    457
49.78    509
49.8     532
49.82    590
49.84    594
49.86    573
49.88    549
49.9     614
49.92    570
49.94    575
49.96    402
49.98    398
50.0     383
50.02    450
50.04    395
50.06    393
50.08    410
50.1     550
50.12    646
50.14    690
50.16    673
50.18    691
50.2     640
50.22    616
50.24    416
50.26    291
50.28    320
50.3     360
50.32    416
50.34    465
50.36    582
50.38    691
50.4     761
50.42    755
50.44    648
50.46    643
50.48    670
50.5     568
50.52    457
50.54    395
50.56    409
50.58    405
50.6     408
50.62    372
50.64    408
50.66    536
50.68    555
50.7     558
50.72    565
50.74    565
50.76    571
50.78    472
50.8     456
50.82    423
50.84    441
50.86    483
50.88    472
50.9     504
50.92    551
50.94    522
50.96    532
50.98    467
51.0     464
51.02    478
51.04    466
51.06    475
51.08    476
51.1     428
51.12    408
51.14    395
51.16    406
51.18    392
51.2     425
51.22    504
51.24    574
51.26    689
51.28    724
51.3     679
51.32    680
51.34    655
51.36    567
51.38    548
51.4     504
51.42    507
51.44    588
51.46    654
51.48    629
51.5     600
51.52    579
51.54    603
51.56    573
51.58    597
51.6     538
51.62    555
51.64    562
51.66    553
51.68    485
51.7     510
51.72    502
51.74    553
51.76    527
51.78    558
51.8     540
51.82    579
51.84    589
51.86    658
51.88    697
51.9     684
51.92    664
51.94    645
51.96    616
51.98    599
52.0     519
52.02    567
52.04    610
52.06    626
52.08    606
52.1     545
52.12    597
52.14    629
52.16    634
52.18    616
52.2     647
52.22    836
52.24    875
52.26    789
52.28    713
52.3     723
52.32    731
52.34    659
52.36    524
52.38    457
52.4     502
52.42    565
52.44    468
52.46    406
52.48    445
52.5     589
52.52    667
52.54    675
52.56    594
52.58    642
52.6     627
52.62    567
52.64    460
52.66    483
52.68    514
52.7     636
52.72    685
52.74    728
52.76    713
52.78    745
52.8     683
52.82    684
52.84    601
52.86    590
52.88    575
52.9     589
52.92    636
52.94    665
52.96    676
52.98    713
53.0     741
53.02    817
53.04    834
53.06    799
53.08    822
53.1     830
53.12    850
53.14    830
53.16    860
53.18    883
53.2     963
53.22    1042
53.24    1140
53.26    1206
53.28    1387
53.3     1547
53.32    1751
53.34    2004
53.36    2401
53.38    3028
53.4     4154
53.42    5532
53.44    7054
53.46    8301
53.48    9046
53.5     9096
53.52    8478
53.54    7194
53.56    5726
53.58    4259
53.6     3099
53.62    2327
53.64    1904
53.66    1577
53.68    1381
53.7     1230
53.72    1106
53.74    970
53.76    963
53.78    898
53.8     815
53.82    774
53.84    681
53.86    609
53.88    613
53.9     597
53.92    605
53.94    620
53.96    675
53.98    746
54.0     797
54.02    837
54.04    764
54.06    730
54.08    745
54.1     680
54.12    654
54.14    594
54.16    556
54.18    603
54.2     650
54.22    639
54.24    578
54.26    575
54.28    565
54.3     538
54.32    556
54.34    548
54.36    572
54.38    665
54.4     685
54.42    683
54.44    605
54.46    600
54.48    548
54.5     563
54.52    575
54.54    560
54.56    511
54.58    575
54.6     615
54.62    629
54.64    567
54.66    563
54.68    568
54.7     627
54.72    630
54.74    562
54.76    482
54.78    509
54.8     583
54.82    616
54.84    621
54.86    587
54.88    600
54.9     648
54.92    654
54.94    576
54.96    481
54.98    420
55.0     469
55.02    491
55.04    458
55.06    467
55.08    502
55.1     563
55.12    635
55.14    662
55.16    609
55.18    547
55.2     544
55.22    531
55.24    509
55.26    526
55.28    537
55.3     553
55.32    624
55.34    655
55.36    637
55.38    613
55.4     564
55.42    577
55.44    583
55.46    545
55.48    536
55.5     580
55.52    663
55.54    715
55.56    801
55.58    790
55.6     758
55.62    734
55.64    664
55.66    588
55.68    489
55.7     429
55.72    422
55.74    475
55.76    534
55.78    563
55.8     643
55.82    692
55.84    747
55.86    791
55.88    692
55.9     624
55.92    571
55.94    473
55.96    388
55.98    346
56.0     368
56.02    428
56.04    507
56.06    605
56.08    689
56.1     776
56.12    773
56.14    710
56.16    654
56.18    550
56.2     539
56.22    482
56.24    406
56.26    426
56.28    500
56.3     585
56.32    648
56.34    693
56.36    707
56.38    749
56.4     820
56.42    759
56.44    681
56.46    624
56.48    593
56.5     558
56.52    528
56.54    488
56.56    484
56.58    534
56.6     552
56.62    604
56.64    636
56.66    662
56.68    700
56.7     727
56.72    741
56.74    818
56.76    823
56.78    792
56.8     770
56.82    678
56.84    582
56.86    562
56.88    493
56.9     458
56.92    467
56.94    545
56.96    553
56.98    592
57.0     610
57.02    541
57.04    546
57.06    616
57.08    581
57.1     609
57.12    649
57.14    624
57.16    639
57.18    596
57.2     554
57.22    586
57.24    617
57.26    698
57.28    732
57.3     829
57.32    776
57.34    785
57.36    805
57.38    638
57.4     587
57.42    577
57.44    575
57.46    594
57.48    635
57.5     683
57.52    626
57.54    751
57.56    807
57.58    797
57.6     790
57.62    749
57.64    713
57.66    701
57.68    694
57.7     667
57.72    702
57.74    826
57.76    906
57.78    1080
57.8     1104
57.82    1093
57.84    1077
57.86    1099
57.88    1046
57.9     1001
57.92    1111
57.94    1151
57.96    1262
57.98    1524
58.0     1690
58.02    1858
58.04    2027
58.06    2201
58.08    2379
58.1     2585
58.12    2942
58.14    3388
58.16    4165
58.18    5401
58.2     7218
58.22    9814
58.24    13067
58.26    16613
58.28    19604
58.3     21264
58.32    21403
58.34    19903
58.36    17121
58.38    13603
58.4     10065
58.42    7118
58.44    5053
58.46    3860
58.48    3111
58.5     2617
58.52    2313
58.54    2037
58.56    1897
58.58    1727
58.6     1611
58.62    1475
58.64    1282
58.66    1169
58.68    1063
58.7     1008
58.72    928
58.74    883
58.76    866
58.78    812
58.8     831
58.82    828
58.84    819
58.86    873
58.88    890
58.9     934
58.92    964
58.94    978
58.96    917
58.98    820
59.0     805
59.02    728
59.04    695
59.06    652
59.08    597
59.1     601
59.12    603
59.14    638
59.16    616
59.18    582
59.2     616
59.22    606
59.24    626
59.26    630
59.28    617
59.3     597
59.32    589
59.34    690
59.36    683
59.38    656
59.4     595
59.42    573
59.44    548
59.46    579
59.48    567
59.5     494
59.52    490
59.54    565
59.56    626
59.58    656
59.6     658
59.62    688
59.64    738
59.66    792
59.68    788
59.7     692
59.72    647
59.74    651
59.76    650
59.78    555
59.8     476
59.82    429
59.84    448
59.86    464
59.88    479
59.9     482
59.92    548
59.94    634
59.96    654
59.98    646
60.0     658
60.02    626
60.04    642
60.06    606
60.08    553
60.1     544
60.12    531
60.14    576
60.16    554
60.18    597
60.2     581
60.22    574
60.24    579
60.26    546
60.28    560
60.3     565
60.32    589
60.34    620
60.36    575
60.38    578
60.4     570
60.42    612
60.44    620
60.46    607
60.48    574
60.5     563
60.52    533
60.54    490
60.56    502
60.58    479
60.6     507
60.62    564
60.64    656
60.66    656
60.68    671
60.7     783
60.72    716
60.74    748
60.76    776
60.78    688
60.8     592
60.82    597
60.84    643
60.86    558
60.88    540
60.9     532
60.92    506
60.94    527
60.96    574
60.98    592
61.0     572
61.02    633
61.04    684
61.06    643
61.08    661
61.1     650
61.12    686
61.14    632
61.16    657
61.18    682
61.2     657
61.22    646
61.24    663
61.26    684
61.28    667
61.3     664
61.32    719
61.34    696
61.36    633
61.38    617
61.4     564
61.42    536
61.44    535
61.46    558
61.48    595
61.5     642
61.52    723
61.54    727
61.56    761
61.58    771
61.6     813
61.62    843
61.64    883
61.66    910
61.68    896
61.7     841
61.72    829
61.74    879
61.76    937
61.78    975
61.8     1090
61.82    1203
61.84    1349
61.86    1456
61.88    1592
61.9     1791
61.92    2076
61.94    2493
61.96    3047
61.98    4078
62.0     5731
62.02    8448
62.04    12031
62.06    15956
62.08    19434
62.1     21832
62.12    22736
62.14    21929
62.16    19565
62.18    16269
62.2     12673
62.22    9532
62.24    7130
62.26    5446
62.28    4189
62.3     3276
62.32    2678
62.34    2241
62.36    1952
62.38    1766
62.4     1618
62.42    1381
62.44    1238
62.46    1107
62.48    937
62.5     801
62.52    740
62.54    694
62.56    723
62.58    727
62.6     787
62.62    782
62.64    833
62.66    849
62.68    779
62.7     814
62.72    838
62.74    799
62.76    814
62.78    747
62.8     735
62.82    669
62.84    631
62.86    559
62.88    425
62.9     428
62.92    486
62.94    479
62.96    562
62.98    598
63.0     680
63.02    656
63.04    678
63.06    678
63.08    612
63.1     547
63.12    601
63.14    566
63.16    556
63.18    559
63.2     603
63.22    580
63.24    628
63.26    638
63.28    575
63.3     522
63.32    538
63.34    558
63.36    519
63.38    526
63.4     543
63.42    539
63.44    564
63.46    627
63.48    622
63.5     620
63.52    610
63.54    607
63.56    556
63.58    503
63.6     481
63.62    464
63.64    502
63.66    543
63.68    511
63.7     545
63.72    541
63.74    548
63.76    587
63.78    579
63.8     619
63.82    636
63.84    667
63.86    629
63.88    586
63.9     612
63.92    588
63.94    571
63.96    601
63.98    570
64.0     557
64.02    553
64.04    527
64.06    477
64.08    471
64.1     443
64.12    446
64.14    447
64.16    529
64.18    536
64.2     537
64.22    556
64.24    522
64.26    523
64.28    537
64.3     493
64.32    558
64.34    586
64.36    675
64.38    731
64.4     756
64.42    802
64.44    863
64.46    926
64.48    915
64.5     864
64.52    853
64.54    841
64.56    864
64.58    900
64.6     927
64.62    1015
64.64    1219
64.66    1493
64.68    1955
64.7     2614
64.72    3536
64.74    4515
64.76    5338
64.78    5884
64.8     6066
64.82    5792
64.84    5162
64.86    4310
64.88    3429
64.9     2611
64.92    2051
64.94    1609
64.96    1299
64.98    1080
65.0     1018
65.02    911
65.04    897
65.06    871
65.08    857
65.1     866
65.12    836
65.14    783
65.16    798
65.18    768
65.2     783
65.22    749
65.24    754
65.26    731
65.28    744
65.3     720
65.32    606
65.34    478
65.36    494
65.38    423
65.4     376
65.42    386
65.44    384
65.46    365
65.48    420
65.5     480
65.52    512
65.54    502
65.56    556
65.58    554
65.6     542
65.62    562
65.64    563
65.66    484
65.68    545
65.7     559
65.72    542
65.74    561
65.76    520
65.78    506
65.8     495
65.82    480
65.84    508
65.86    398
65.88    437
65.9     432
65.92    445
65.94    516
65.96    516
65.98    556
66.0     593
66.02    610
66.04    620
66.06    526
66.08    560
66.1     563
66.12    573
66.14    561
66.16    572
66.18    586
66.2     630
66.22    619
66.24    595
66.26    554
66.28    560
66.3     555
66.32    550
66.34    501
66.36    482
66.38    456
66.4     453
66.42    419
66.44    371
66.46    348
66.48    362
66.5     428
66.52    432
66.54    483
66.56    553
66.58    603
66.6     666
66.62    775
66.64    765
66.66    744
66.68    678
66.7     657
66.72    565
66.74    507
66.76    413
66.78    338
66.8     303
66.82    335
66.84    344
66.86    372
66.88    386
66.9     418
66.92    446
66.94    491
66.96    500
66.98    567
67.0     602
67.02    619
67.04    630
67.06    564
67.08    499
67.1     422
67.12    407
67.14    437
67.16    402
67.18    376
67.2     387
67.22    379
67.24    395
67.26    368
67.28    412
67.3     492
67.32    579
67.34    607
67.36    618
67.38    583
67.4     574
67.42    505
67.44    474
67.46    469
67.48    406
67.5     423
67.52    423
67.54    453
67.56    496
67.58    518
67.6     535
67.62    514
67.64    508
67.66    546
67.68    575
67.7     607
67.72    627
67.74    647
67.76    581
67.78    551
67.8     483
67.82    427
67.84    443
67.86    462
67.88    478
67.9     438
67.92    459
67.94    430
67.96    452
67.98    469
68.0     490
68.02    529
68.04    636
68.06    621
68.08    632
68.1     669
68.12    663
68.14    608
68.16    565
68.18    527
68.2     469
68.22    406
68.24    393
68.26    404
68.28    460
68.3     499
68.32    489
68.34    478
68.36    487
68.38    515
68.4     527
68.42    576
68.44    580
68.46    656
68.48    664
68.5     610
68.52    580
68.54    547
68.56    594
68.58    582
68.6     638
68.62    667
68.64    710
68.66    778
68.68    774
68.7     754
68.72    728
68.74    745
68.76    806
68.78    836
68.8     930
68.82    1031
68.84    1236
68.86    1470
68.88    1797
68.9     2201
68.92    2654
68.94    3232
68.96    3912
68.98    4595
69.0     5197
69.02    5483
69.04    5466
69.06    5131
69.08    4566
69.1     3782
69.12    2987
69.14    2306
69.16    1831
69.18    1502
69.2     1282
69.22    1079
69.24    993
69.26    909
69.28    896
69.3     860
69.32    851
69.34    852
69.36    801
69.38    746
69.4     683
69.42    698
69.44    690
69.46    666
69.48    638
69.5     591
69.52    525
69.54    522
69.56    545
69.58    598
69.6     645
69.62    662
69.64    673
69.66    667
69.68    643
69.7     600
69.72    610
69.74    583
69.76    528
69.78    469
69.8     464
69.82    419
69.84    464
69.86    496
69.88    601
69.9     621
69.92    660
69.94    648
69.96    630
69.98    645
70.0     668
70.02    618
70.04    580
70.06    608
70.08    603
70.1     616
70.12    573
70.14    593
70.16    571
70.18    558
70.2     494
70.22    463
70.24    488
70.26    504
70.28    523
70.3     579
70.32    604
70.34    707
70.36    780
70.38    853
70.4     944
70.42    1040
70.44    1057
70.46    1050
70.48    1044
70.5     1057
70.52    1163
70.54    1330
70.56    1500
70.58    1722
70.6     1982
70.62    2160
70.64    2380
70.66    2569
70.68    2650
70.7     2633
70.72    2487
70.74    2259
70.76    1923
70.78    1638
70.8     1370
70.82    1159
70.84    1003
70.86    851
70.88    797
70.9     721
70.92    718
70.94    685
70.96    690
70.98    725
71.0     688
71.02    619
71.04    573
71.06    588
71.08    594
71.1     567
71.12    563
71.14    579
71.16    542
71.18    499
71.2     459
71.22    468
71.24    533
71.26    525
71.28    501
71.3     538
71.32    535
71.34    540
71.36    529
71.38    594
71.4     663
71.42    677
71.44    590
71.46    541
71.48    491
71.5     463
71.52    434
71.54    411
71.56    449
71.58    441
71.6     467
71.62    455
71.64    477
71.66    560
71.68    562
71.7     636
71.72    722
71.74    766
71.76    738
71.78    715
71.8     665
71.82    599
71.84    569
71.86    545
71.88    528
71.9     499
71.92    460
71.94    443
71.96    432
71.98    446
72.0     468
72.02    505
72.04    558
72.06    619
72.08    691
72.1     733
72.12    795
72.14    830
72.16    844
72.18    842
72.2     920
72.22    975
72.24    1025
72.26    1046
72.28    1155
72.3     1238
72.32    1305
72.34    1405
72.36    1573
72.38    1846
72.4     2350
72.42    2947
72.44    3822
72.46    4821
72.48    5750
72.5     6463
72.52    6847
72.54    6843
72.56    6378
72.58    5635
72.6     4710
72.62    3775
72.64    3063
72.66    2449
72.68    1987
72.7     1726
72.72    1551
72.74    1428
72.76    1282
72.78    1219
72.8     1182
72.82    1082
72.84    998
72.86    861
72.88    813
72.9     679
72.92    630
72.94    598
72.96    566
72.98    566
73.0     608
73.02    594
73.04    708
73.06    686
73.08    697
73.1     624
73.12    639
73.14    632
73.16    640
73.18    606
73.2     594
73.22    614
73.24    611
73.26    623
73.28    673
73.3     741
73.32    878
73.34    1020
73.36    1209
73.38    1356
73.4     1485
73.42    1507
73.44    1494
73.46    1456
73.48    1330
73.5     1200
73.52    1085
73.54    962
73.56    901
73.58    810
73.6     754
73.62    648
73.64    604
73.66    587
73.68    604
73.7     649
73.72    671
73.74    703
73.76    732
73.78    728
73.8     736
73.82    707
73.84    641
73.86    657
73.88    595
73.9     640
73.92    655
73.94    684
73.96    733
73.98    750
74.0     817
74.02    799
74.04    741
74.06    788
74.08    766
74.1     955
74.12    1168
74.14    1450
74.16    1821
74.18    2241
74.2     2688
74.22    2959
74.24    3196
74.26    3278
74.28    3082
74.3     2808
74.32    2439
74.34    2028
74.36    1728
74.38    1502
74.4     1313
74.42    1210
74.44    1126
74.46    988
74.48    901
74.5     865
74.52    813
74.54    779
74.56    840
74.58    813
74.6     759
74.62    705
74.64    596
74.66    597
74.68    736
74.7     874
74.72    973
74.74    1149
74.76    1309
74.78    1451
74.8     1651
74.82    1880
74.84    2184
74.86    2579
74.88    2895
74.9     3043
74.92    2995
74.94    2885
74.96    2592
74.98    2265
75.0     1916
75.02    1560
75.04    1329
75.06    1167
75.08    1025
75.1     907
75.12    835
75.14    865
75.16    768
75.18    691
75.2     618
75.22    594
75.24    645
75.26    668
75.28    708
75.3     742
75.32    750
75.34    692
75.36    554
75.38    495
75.4     507
75.42    489
75.44    516
75.46    521
75.48    518
75.5     541
75.52    467
75.54    463
75.56    480
75.58    565
75.6     546
75.62    414
75.64    388
75.66    318
75.68    303
75.7     298
75.72    288
75.74    403
75.76    481
75.78    568
75.8     517
75.82    571
75.84    698
75.86    706
75.88    767
75.9     708
75.92    663
75.94    630
75.96    549
75.98    472
76.0     323
76.02    335
76.04    337
76.06    251
76.08    262
76.1     287
76.12    353
76.14    510
76.16    558
76.18    570
76.2     514
76.22    598
76.24    657
76.26    630
76.28    656
76.3     715
76.32    701
76.34    699
76.36    585
76.38    483
76.4     443
76.42    496
76.44    518
76.46    501
76.48    488
76.5     521
76.52    486
76.54    450
76.56    412
76.58    371
76.6     356
76.62    405
76.64    405
76.66    416
76.68    455
76.7     565
76.72    573
76.74    599
76.76    626
76.78    630
76.8     661
76.82    729
76.84    726
76.86    663
76.88    668
76.9     658
76.92    544
76.94    490
76.96    493
76.98    474
77.0     457
77.02    471
77.04    452
77.06    447
77.08    556
77.1     663
77.12    719
77.14    805
77.16    882
77.18    909
77.2     888
77.22    898
77.24    918
77.26    979
77.28    1054
77.3     1138
77.32    1262
77.34    1396
77.36    1508
77.38    1796
77.4     2185
77.42    2775
77.44    3686
77.46    4731
77.48    5797
77.5     6762
77.52    7456
77.54    7715
77.56    7464
77.58    6904
77.6     6045
77.62    5089
77.64    4234
77.66    3499
77.68    2923
77.7     2458
77.72    2023
77.74    1709
77.76    1385
77.78    1169
77.8     997
77.82    893
77.84    847
77.86    855
77.88    904
77.9     887
77.92    851
77.94    832
77.96    779
77.98    729
78.0     707
78.02    670
78.04    649
78.06    596
78.08    570
78.1     540
78.12    514
78.14    463
78.16    433
78.18    418
78.2     430
78.22    417
78.24    372
78.26    329
78.28    380
78.3     384
78.32    406
78.34    464
78.36    504
78.38    542
78.4     572
78.42    596
78.44    567
78.46    532
78.48    526
78.5     485
78.52    494
78.54    521
78.56    534
78.58    515
78.6     506
78.62    493
78.64    469
78.66    422
78.68    332
78.7     349
78.72    382
78.74    420
78.76    441
78.78    443
78.8     483
78.82    523
78.84    519
78.86    524
78.88    479
78.9     494
78.92    575
78.94    551
78.96    541
78.98    552
79.0     528
79.02    581
79.04    551
79.06    594
79.08    634
79.1     609
79.12    607
79.14    501
79.16    452
79.18    403
79.2     367
79.22    436
79.24    523
79.26    578
79.28    607
79.3     567
79.32    513
79.34    421
79.36    436
79.38    442
79.4     436
79.42    471
79.44    503
79.46    415
79.48    391
79.5     411
79.52    406
79.54    395
79.56    477
79.58    517
79.6     447
79.62    501
79.64    449
79.66    413
79.68    487
79.7     543
79.72    542
79.74    546
79.76    536
79.78    522
79.8     465
79.82    561
79.84    586
79.86    624
79.88    744
79.9     770
79.92    814
79.94    815
79.96    774
79.98    733
80.0     695
80.02    665
80.04    606
80.06    559
80.08    546
80.1     523
80.12    451
80.14    418
80.16    393
80.18    355
80.2     350
80.22    382
80.24    417
80.26    509
80.28    521
80.3     533
80.32    508
80.34    491
80.36    517
80.38    514
80.4     510
80.42    532
80.44    577
80.46    542
80.48    504
80.5     519
80.52    516
80.54    460
80.56    480
80.58    503
80.6     473
80.62    462
80.64    487
80.66    470
80.68    440
80.7     501
80.72    545
80.74    514
80.76    485
80.78    511
80.8     484
80.82    407
80.84    407
80.86    407
80.88    377
80.9     430
80.92    509
80.94    482
80.96    434
80.98    425
81.0     360
81.02    317
81.04    336
81.06    379
81.08    411
81.1     418
81.12    448
81.14    530
81.16    484
81.18    495
81.2     450
81.22    475
81.24    468
81.26    458
81.28    427
81.3     429
81.32    414
81.34    502
81.36    516
81.38    508
81.4     472
81.42    478
81.44    434
81.46    386
81.48    398
81.5     440
81.52    398
81.54    461
81.56    473
81.58    420
81.6     434
81.62    438
81.64    411
81.66    382
81.68    395
81.7     426
81.72    366
81.74    392
81.76    363
81.78    323
81.8     368
81.82    351
81.84    359
81.86    397
81.88    462
81.9     475
81.92    488
81.94    519
81.96    537
81.98    513
82.0     556
82.02    530
82.04    553
82.06    575
82.08    556
82.1     446
82.12    426
82.14    411
82.16    362
82.18    282
82.2     284
82.22    222
82.24    254
82.26    261
82.28    312
82.3     334
82.32    416
82.34    530
82.36    615
82.38    659
82.4     673
82.42    598
82.44    603
82.46    546
82.48    509
82.5     435
82.52    399
82.54    418
82.56    420
82.58    388
82.6     346
82.62    343
82.64    375
82.66    401
82.68    455
82.7     491
82.72    556
82.74    594
82.76    564
82.78    542
82.8     497
82.82    499
82.84    475
82.86    446
82.88    538
82.9     563
82.92    587
82.94    613
82.96    631
82.98    600
83.0     537
83.02    538
83.04    463
83.06    475
83.08    544
83.1     497
83.12    433
83.14    411
83.16    382
83.18    298
83.2     208
83.22    218
83.24    214
83.26    266
83.28    328
83.3     399
83.32    438
83.34    483
83.36    490
83.38    518
83.4     502
83.42    479
83.44    446
83.46    447
83.48    442
83.5     482
83.52    520
83.54    542
83.56    548
83.58    608
83.6     578
83.62    527
83.64    575
83.66    584
83.68    583
83.7     509
83.72    463
83.74    385
83.76    347
83.78    280
83.8     252
83.82    268
83.84    330
83.86    349
83.88    410
83.9     371
83.92    419
83.94    435
83.96    521
83.98    465
84.0     517
84.02    541
84.04    578
84.06    526
84.08    495
84.1     469
84.12    468
84.14    454
84.16    461
84.18    404
84.2     416
84.22    396
84.24    424
84.26    380
84.28    371
84.3     352
84.32    422
84.34    489
84.36    515
84.38    518
84.4     468
84.42    432
84.44    389
84.46    340
84.48    359
84.5     382
84.52    475
84.54    582
84.56    634
84.58    629
84.6     580
84.62    566
84.64    516
84.66    484
84.68    536
84.7     584
84.72    625
84.74    681
84.76    653
84.78    635
84.8     583
84.82    538
84.84    506
84.86    481
84.88    522
84.9     537
84.92    529
84.94    467
84.96    464
84.98    532
85.0     531
85.02    578
85.04    596
85.06    634
85.08    711
85.1     651
85.12    616
85.14    503
85.16    453
85.18    433
85.2     393
85.22    391
85.24    327
85.26    343
85.28    337
85.3     278
85.32    330
85.34    365
85.36    383
85.38    492
85.4     627
85.42    678
85.44    687
85.46    667
85.48    593
85.5     545
85.52    548
85.54    569
85.56    521
85.58    537
85.6     553
85.62    482
85.64    403
85.66    278
85.68    164
85.7     177
85.72    271
85.74    303
85.76    326
85.78    338
85.8     343
85.82    313
85.84    293
85.86    254
85.88    302
85.9     434
85.92    531
85.94    573
85.96    591
85.98    545
86.0     473
86.02    447
86.04    470
86.06    538
86.08    647
86.1     651
86.12    727
86.14    740
86.16    627
86.18    528
86.2     426
86.22    424
86.24    448
86.26    567
86.28    659
86.3     770
86.32    950
86.34    1086
86.36    1238
86.38    1434
86.4     1528
86.42    1575
86.44    1572
86.46    1544
86.48    1405
86.5     1247
86.52    1040
86.54    873
86.56    767
86.58    746
86.6     719
86.62    692
86.64    700
86.66    657
86.68    620
86.7     583
86.72    517
86.74    488
86.76    501
86.78    592
86.8     684
86.82    680
86.84    648
86.86    513
86.88    486
86.9     383
86.92    288
86.94    254
86.96    228
86.98    305
87.0     336
87.02    339
87.04    352
87.06    325
87.08    420
87.1     429
87.12    431
87.14    467
87.16    512
87.18    563
87.2     535
87.22    554
87.24    597
87.26    607
87.28    662
87.3     632
87.32    590
87.34    594
87.36    590
87.38    544
87.4     515
87.42    519
87.44    508
87.46    482
87.48    484
87.5     438
87.52    372
87.54    382
87.56    362
87.58    375
87.6     424
87.62    474
87.64    527
87.66    566
87.68    565
87.7     547
87.72    502
87.74    488
87.76    399
87.78    399
87.8     404
87.82    457
87.84    515
87.86    499
87.88    473
87.9     487
87.92    490
87.94    422
87.96    383
87.98    339
88.0     316
88.02    342
88.04    399
88.06    368
88.08    405
88.1     456
88.12    522
88.14    594
88.16    590
88.18    544
88.2     513
88.22    552
88.24    510
88.26    459
88.28    501
88.3     560
88.32    585
88.34    670
88.36    611
88.38    598
88.4     537
88.42    467
88.44    320
88.46    270
88.48    314
88.5     312
88.52    414
88.54    481
88.56    496
88.58    524
88.6     472
88.62    324
88.64    233
88.66    192
88.68    227
88.7     223
88.72    340
88.74    323
88.76    362
88.78    429
88.8     367
88.82    372
88.84    435
88.86    493
88.88    555
88.9     655
88.92    743
88.94    722
88.96    731
88.98    695
89.0     540
89.02    536
89.04    492
89.06    497
89.08    492
89.1     537
89.12    505
89.14    395
89.16    348
89.18    241
89.2     155
89.22    175
89.24    166
89.26    273
89.28    352
89.3     467
89.32    506
89.34    511
89.36    545
89.38    547
89.4     531
89.42    518
89.44    485
89.46    530
89.48    565
89.5     559
89.52    552
89.54    517
89.56    494
89.58    482
89.6     464
89.62    443
89.64    448
89.66    498
89.68    541
89.7     537
89.72    485
89.74    465
89.76    454
89.78    479
89.8     465
89.82    458
89.84    434
89.86    495
89.88    516
89.9     548
89.92    568
89.94    620
89.96    639
89.98    636
90.0     656
