?
5.0      579
5.02     579
5.04     750
5.06     748
5.08     750
5.1      796
5.12     772
5.14     804
5.16     816
5.18     829
5.2      830
5.22     828
5.24     803
5.26     802
5.28     760
5.3      746
5.32     716
5.34     752
5.36     736
5.38     771
5.4      772
5.42     783
5.44     821
5.46     810
5.48     848
5.5      850
5.52     897
5.54     907
5.56     895
5.58     902
5.6      895
5.62     875
5.64     865
5.66     857
5.68     843
5.7      829
5.72     829
5.74     785
5.76     789
5.78     806
5.8      853
5.82     848
5.84     870
5.86     888
5.88     844
5.9      871
5.92     878
5.94     867
5.96     865
5.98     878
6.0      947
6.02     893
6.04     885
6.06     869
6.08     848
6.1      874
6.12     848
6.14     818
6.16     846
6.18     848
6.2      924
6.22     894
6.24     911
6.26     969
6.28     971
6.3      934
6.32     924
6.34     887
6.36     894
6.38     857
6.4      881
6.42     823
6.44     845
6.46     882
6.48     869
6.5      871
6.52     941
6.54     928
6.56     973
6.58     940
6.6      898
6.62     864
6.64     842
6.66     870
6.68     866
6.7      877
6.72     909
6.74     905
6.76     917
6.78     876
6.8      864
6.82     838
6.84     823
6.86     868
6.88     862
6.9      878
6.92     914
6.94     897
6.96     910
6.98     894
7.0      876
7.02     866
7.04     874
7.06     901
7.08     883
7.1      923
7.12     913
7.14     911
7.16     881
7.18     870
7.2      871
7.22     903
7.24     912
7.26     962
7.28     951
7.3      1006
7.32     983
7.34     963
7.36     920
7.38     891
7.4      891
7.42     839
7.44     806
7.46     816
7.48     800
7.5      868
7.52     866
7.54     873
7.56     881
7.58     878
7.6      922
7.62     850
7.64     904
7.66     837
7.68     870
7.7      922
7.72     950
7.74     971
7.76     941
7.78     935
7.8      916
7.82     881
7.84     869
7.86     782
7.88     792
7.9      810
7.92     895
7.94     925
7.96     951
7.98     960
8.0      932
8.02     923
8.04     881
8.06     893
8.08     850
8.1      904
8.12     905
8.14     909
8.16     902
8.18     866
8.2      853
8.22     789
8.24     784
8.26     760
8.28     761
8.3      809
8.32     789
8.34     856
8.36     851
8.38     903
8.4      955
8.42     929
8.44     901
8.46     902
8.48     880
8.5      879
8.52     882
8.54     891
8.56     807
8.58     855
8.6      879
8.62     851
8.64     845
8.66     875
8.68     891
8.7      891
8.72     933
8.74     896
8.76     875
8.78     923
8.8      896
8.82     874
8.84     862
8.86     798
8.88     868
8.9      819
8.92     842
8.94     779
8.96     809
8.98     828
9.0      805
9.02     868
9.04     814
9.06     749
9.08     818
9.1      748
9.12     773
9.14     749
9.16     753
9.18     742
9.2      740
9.22     797
9.24     760
9.26     753
9.28     805
9.3      742
9.32     790
9.34     758
9.36     720
9.38     722
9.4      739
9.42     730
9.44     768
9.46     765
9.48     773
9.5      751
9.52     735
9.54     729
9.56     739
9.58     714
9.6      731
9.62     672
9.64     699
9.66     657
9.68     604
9.7      601
9.72     589
9.74     575
9.76     581
9.78     593
9.8      617
9.82     618
9.84     659
9.86     694
9.88     663
9.9      700
9.92     694
9.94     623
9.96     615
9.98     624
10.0     591
10.02    557
10.04    585
10.06    545
10.08    532
10.1     515
10.12    512
10.14    499
10.16    515
10.18    550
10.2     578
10.22    589
10.24    624
10.26    575
10.28    583
10.3     568
10.32    605
10.34    618
10.36    605
10.38    588
10.4     635
10.42    621
10.44    611
10.46    566
10.48    545
10.5     553
10.52    545
10.54    546
10.56    550
10.58    584
10.6     647
10.62    651
10.64    685
10.66    638
10.68    647
10.7     665
10.72    614
10.74    601
10.76    598
10.78    587
10.8     561
10.82    568
10.84    568
10.86    576
10.88    615
10.9     617
10.92    602
10.94    596
10.96    602
10.98    592
11.0     596
11.02    570
11.04    551
11.06    572
11.08    538
11.1     510
11.12    530
11.14    539
11.16    549
11.18    596
11.2     632
11.22    608
11.24    635
11.26    631
11.28    576
11.3     554
11.32    588
11.34    562
11.36    536
11.38    561
11.4     597
11.42    596
11.44    581
11.46    540
11.48    490
11.5     493
11.52    536
11.54    552
11.56    552
11.58    580
11.6     607
11.62    600
11.64    582
11.66    553
11.68    538
11.7     620
11.72    632
11.74    649
11.76    652
11.78    655
11.8     600
11.82    522
11.84    432
11.86    438
11.88    462
11.9     512
11.92    498
11.94    526
11.96    585
11.98    588
12.0     595
12.02    567
12.04    570
12.06    633
12.08    619
12.1     637
12.12    649
12.14    635
12.16    634
12.18    633
12.2     647
12.22    649
12.24    674
12.26    680
12.28    665
12.3     671
12.32    662
12.34    631
12.36    603
12.38    569
12.4     553
12.42    574
12.44    616
12.46    631
12.48    647
12.5     674
12.52    722
12.54    675
12.56    658
12.58    645
12.6     636
12.62    616
12.64    592
12.66    558
12.68    574
12.7     598
12.72    592
12.74    617
12.76    621
12.78    633
12.8     646
12.82    667
12.84    680
12.86    660
12.88    690
12.9     727
12.92    727
12.94    785
12.96    778
12.98    719
13.0     693
13.02    721
13.04    722
13.06    661
13.08    630
13.1     637
13.12    663
13.14    709
13.16    712
13.18    667
13.2     693
13.22    752
13.24    760
13.26    777
13.28    697
13.3     737
13.32    791
13.34    782
13.36    784
13.38    773
13.4     740
13.42    734
13.44    718
13.46    727
13.48    646
13.5     696
13.52    762
13.54    774
13.56    848
13.58    868
13.6     862
13.62    903
13.64    880
13.66    862
13.68    866
13.7     877
13.72    804
13.74    783
13.76    841
13.78    836
13.8     811
13.82    841
13.84    850
13.86    848
13.88    914
13.9     895
13.92    758
13.94    769
13.96    853
13.98    853
14.0     853
14.02    844
14.04    863
14.06    891
14.08    948
14.1     958
14.12    866
14.14    858
14.16    903
14.18    886
14.2     831
14.22    837
14.24    876
14.26    915
14.28    946
14.3     1012
14.32    995
14.34    970
14.36    947
14.38    884
14.4     874
14.42    938
14.44    939
14.46    830
14.48    861
14.5     913
14.52    916
14.54    925
14.56    965
14.58    943
14.6     991
14.62    995
14.64    922
14.66    856
14.68    912
14.7     876
14.72    858
14.74    880
14.76    894
14.78    871
14.8     890
14.82    932
14.84    924
14.86    993
14.88    1028
14.9     1020
14.92    1102
14.94    1153
14.96    1177
14.98    1156
15.0     1162
15.02    1182
15.04    1082
15.06    1087
15.08    1054
15.1     970
15.12    967
15.14    1001
15.16    1027
15.18    1038
15.2     1007
15.22    968
15.24    952
15.26    1014
15.28    1004
15.3     892
15.32    890
15.34    982
15.36    1014
15.38    981
15.4     928
15.42    925
15.44    968
15.46    971
15.48    961
15.5     936
15.52    948
15.54    1000
15.56    1030
15.58    1016
15.6     1018
15.62    1038
15.64    1102
15.66    1102
15.68    1069
15.7     1044
15.72    1043
15.74    1107
15.76    1140
15.78    1122
15.8     1120
15.82    1179
15.84    1212
15.86    1187
15.88    1203
15.9     1186
15.92    1208
15.94    1266
15.96    1268
15.98    1277
16.0     1367
16.02    1432
16.04    1465
16.06    1531
16.08    1683
16.1     1771
16.12    1831
16.14    1913
16.16    2007
16.18    2171
16.2     2375
16.22    2482
16.24    2612
16.26    2909
16.28    3314
16.3     3710
16.32    4127
16.34    4771
16.36    5605
16.38    6606
16.4     7810
16.42    9262
16.44    11077
16.46    13518
16.48    16818
16.5     21376
16.52    27858
16.54    36434
16.56    45636
16.58    52368
16.6     54704
16.62    52214
16.64    45338
16.66    35441
16.68    24405
16.7     14288
16.72    7107
16.74    3710
16.76    3058
16.78    2925
16.8     2727
16.82    2475
16.84    2294
16.86    2159
16.88    2063
16.9     1932
16.92    1854
16.94    1809
16.96    1745
16.98    1601
17.0     1561
17.02    1467
17.04    1462
17.06    1447
17.08    1404
17.1     1331
17.12    1391
17.14    1417
17.16    1391
17.18    1310
17.2     1272
17.22    1245
17.24    1214
17.26    1184
17.28    1094
17.3     1060
17.32    1155
17.34    1175
17.36    1174
17.38    1141
17.4     1165
17.42    1232
17.44    1165
17.46    1118
17.48    1079
17.5     1083
17.52    1089
17.54    1014
17.56    989
17.58    949
17.6     986
17.62    1032
17.64    1012
17.66    1004
17.68    1048
17.7     1035
17.72    985
17.74    905
17.76    889
17.78    886
17.8     933
17.82    965
17.84    947
17.86    951
17.88    983
17.9     1002
17.92    1014
17.94    940
17.96    884
17.98    903
18.0     890
18.02    840
18.04    830
18.06    833
18.08    863
18.1     927
18.12    989
18.14    891
18.16    787
18.18    804
18.2     845
18.22    853
18.24    836
18.26    836
18.28    921
18.3     978
18.32    979
18.34    880
18.36    857
18.38    875
18.4     868
18.42    818
18.44    749
18.46    750
18.48    880
18.5     915
18.52    886
18.54    845
18.56    853
18.58    854
18.6     806
18.62    748
18.64    737
18.66    720
18.68    800
18.7     816
18.72    807
18.74    800
18.76    822
18.78    820
18.8     810
18.82    823
18.84    858
18.86    846
18.88    832
18.9     830
18.92    858
18.94    873
18.96    826
18.98    753
19.0     744
19.02    796
19.04    788
19.06    761
19.08    754
19.1     762
19.12    769
19.14    757
19.16    717
19.18    702
19.2     705
19.22    797
19.24    756
19.26    725
19.28    762
19.3     747
19.32    665
19.34    624
19.36    645
19.38    682
19.4     765
19.42    804
19.44    757
19.46    803
19.48    825
19.5     777
19.52    707
19.54    630
19.56    665
19.58    716
19.6     745
19.62    659
19.64    662
19.66    716
19.68    743
19.7     688
19.72    708
19.74    619
19.76    626
19.78    671
19.8     710
19.82    718
19.84    710
19.86    630
19.88    638
19.9     607
19.92    604
19.94    559
19.96    532
19.98    558
20.0     649
20.02    701
20.04    686
20.06    613
20.08    658
20.1     690
20.12    724
20.14    717
20.16    673
20.18    608
20.2     623
20.22    649
20.24    643
20.26    575
20.28    519
20.3     513
20.32    531
20.34    527
20.36    525
20.38    570
20.4     620
20.42    706
20.44    766
20.46    742
20.48    687
20.5     720
20.52    685
20.54    667
20.56    577
20.58    663
20.6     629
20.62    653
20.64    654
20.66    664
20.68    690
20.7     741
20.72    694
20.74    698
20.76    686
20.78    773
20.8     720
20.82    682
20.84    642
20.86    664
20.88    611
20.9     543
20.92    547
20.94    599
20.96    615
20.98    599
21.0     574
21.02    547
21.04    575
21.06    561
21.08    515
21.1     462
21.12    489
21.14    482
21.16    497
21.18    525
21.2     543
21.22    538
21.24    589
21.26    602
21.28    659
21.3     661
21.32    731
21.34    706
21.36    729
21.38    716
21.4     638
21.42    561
21.44    533
21.46    523
21.48    550
21.5     609
21.52    654
21.54    563
21.56    529
21.58    481
21.6     496
21.62    470
21.64    466
21.66    481
21.68    570
21.7     643
21.72    654
21.74    602
21.76    594
21.78    552
21.8     610
21.82    565
21.84    519
21.86    457
21.88    530
21.9     564
21.92    642
21.94    575
21.96    489
21.98    382
22.0     376
22.02    364
22.04    312
22.06    303
22.08    361
22.1     454
22.12    547
22.14    478
22.16    420
22.18    418
22.2     438
22.22    486
22.24    505
22.26    526
22.28    456
22.3     514
22.32    483
22.34    460
22.36    463
22.38    510
22.4     524
22.42    565
22.44    548
22.46    492
22.48    399
22.5     429
22.52    428
22.54    461
22.56    445
22.58    410
22.6     426
22.62    482
22.64    470
22.66    445
22.68    395
22.7     408
22.72    468
22.74    535
22.76    514
22.78    466
22.8     442
22.82    426
22.84    429
22.86    456
22.88    458
22.9     447
22.92    492
22.94    519
22.96    459
22.98    365
23.0     305
23.02    284
23.04    379
23.06    499
23.08    596
23.1     627
23.12    627
23.14    582
23.16    518
23.18    437
23.2     470
23.22    486
23.24    582
23.26    603
23.28    590
23.3     474
23.32    430
23.34    407
23.36    366
23.38    309
23.4     393
23.42    425
23.44    491
23.46    493
23.48    500
23.5     513
23.52    572
23.54    602
23.56    582
23.58    581
23.6     609
23.62    566
23.64    506
23.66    443
23.68    426
23.7     460
23.72    462
23.74    527
23.76    524
23.78    515
23.8     489
23.82    453
23.84    450
23.86    435
23.88    421
23.9     422
23.92    417
23.94    467
23.96    428
23.98    465
24.0     484
24.02    521
24.04    586
24.06    543
24.08    509
24.1     409
24.12    389
24.14    369
24.16    368
24.18    361
24.2     335
24.22    286
24.24    302
24.26    318
24.28    397
24.3     413
24.32    473
24.34    457
24.36    516
24.38    443
24.4     428
24.42    379
24.44    379
24.46    356
24.48    322
24.5     276
24.52    278
24.54    320
24.56    404
24.58    427
24.6     480
24.62    509
24.64    457
24.66    447
24.68    439
24.7     437
24.72    452
24.74    481
24.76    475
24.78    469
24.8     423
24.82    397
24.84    372
24.86    453
24.88    512
24.9     520
24.92    498
24.94    449
24.96    409
24.98    376
25.0     343
25.02    371
25.04    330
25.06    403
25.08    410
25.1     423
25.12    399
25.14    375
25.16    408
25.18    514
25.2     523
25.22    564
25.24    488
25.26    482
25.28    426
25.3     362
25.32    299
25.34    241
25.36    252
25.38    337
25.4     363
25.42    457
25.44    461
25.46    437
25.48    383
25.5     349
25.52    351
25.54    306
25.56    330
25.58    347
25.6     411
25.62    477
25.64    523
25.66    505
25.68    485
25.7     495
25.72    489
25.74    427
25.76    401
25.78    365
25.8     408
25.82    440
25.84    448
25.86    372
25.88    349
25.9     299
25.92    326
25.94    335
25.96    381
25.98    412
26.0     466
26.02    415
26.04    357
26.06    331
26.08    337
26.1     361
26.12    422
26.14    444
26.16    430
26.18    409
26.2     402
26.22    405
26.24    450
26.26    495
26.28    454
26.3     434
26.32    369
26.34    349
26.36    236
26.38    286
26.4     365
26.42    441
26.44    469
26.46    455
26.48    404
26.5     393
26.52    352
26.54    384
26.56    327
26.58    446
26.6     477
26.62    446
26.64    356
26.66    296
26.68    284
26.7     298
26.72    337
26.74    363
26.76    352
26.78    428
26.8     431
26.82    430
26.84    358
26.86    318
26.88    312
26.9     291
26.92    333
26.94    317
26.96    393
26.98    423
27.0     406
27.02    401
27.04    396
27.06    371
27.08    389
27.1     410
27.12    461
27.14    432
27.16    513
27.18    429
27.2     359
27.22    343
27.24    335
27.26    333
27.28    371
27.3     412
27.32    478
27.34    469
27.36    492
27.38    482
27.4     480
27.42    490
27.44    431
27.46    398
27.48    315
27.5     342
27.52    407
27.54    386
27.56    347
27.58    384
27.6     404
27.62    435
27.64    392
27.66    333
27.68    244
27.7     327
27.72    340
27.74    357
27.76    362
27.78    360
27.8     401
27.82    469
27.84    451
27.86    418
27.88    385
27.9     406
27.92    365
27.94    405
27.96    390
27.98    366
28.0     359
28.02    405
28.04    373
28.06    357
28.08    365
28.1     358
28.12    315
28.14    321
28.16    295
28.18    339
28.2     348
28.22    371
28.24    362
28.26    351
28.28    405
28.3     370
28.32    364
28.34    381
28.36    375
28.38    393
28.4     345
28.42    310
28.44    324
28.46    334
28.48    425
28.5     380
28.52    412
28.54    412
28.56    346
28.58    274
28.6     225
28.62    236
28.64    356
28.66    482
28.68    572
28.7     513
28.72    476
28.74    403
28.76    328
28.78    305
28.8     305
28.82    345
28.84    408
28.86    449
28.88    485
28.9     427
28.92    421
28.94    396
28.96    437
28.98    491
29.0     446
29.02    454
29.04    417
29.06    395
29.08    454
29.1     461
29.12    484
29.14    473
29.16    478
29.18    449
29.2     376
29.22    351
29.24    326
29.26    371
29.28    447
29.3     488
29.32    451
29.34    381
29.36    295
29.38    200
29.4     183
29.42    185
29.44    245
29.46    349
29.48    383
29.5     443
29.52    426
29.54    433
29.56    362
29.58    340
29.6     364
29.62    375
29.64    385
29.66    431
29.68    443
29.7     473
29.72    480
29.74    445
29.76    362
29.78    355
29.8     298
29.82    283
29.84    289
29.86    296
29.88    361
29.9     405
29.92    478
29.94    472
29.96    469
29.98    458
30.0     373
30.02    341
30.04    340
30.06    321
30.08    398
30.1     524
30.12    570
30.14    595
30.16    560
30.18    520
30.2     459
30.22    444
30.24    412
30.26    378
30.28    404
30.3     439
30.32    364
30.34    392
30.36    372
30.38    385
30.4     454
30.42    462
30.44    422
30.46    462
30.48    494
30.5     484
30.52    468
30.54    472
30.56    433
30.58    406
30.6     438
30.62    430
30.64    445
30.66    462
30.68    441
30.7     391
30.72    299
30.74    221
30.76    199
30.78    233
30.8     304
30.82    422
30.84    493
30.86    469
30.88    472
30.9     412
30.92    333
30.94    288
30.96    275
30.98    286
31.0     324
31.02    368
31.04    317
31.06    314
31.08    355
31.1     366
31.12    370
31.14    412
31.16    414
31.18    372
31.2     365
31.22    307
31.24    239
31.26    288
31.28    333
31.3     379
31.32    441
31.34    486
31.36    465
31.38    352
31.4     292
31.42    259
31.44    198
31.46    240
31.48    311
31.5     312
31.52    362
31.54    415
31.56    421
31.58    418
31.6     443
31.62    439
31.64    406
31.66    431
31.68    445
31.7     436
31.72    414
31.74    402
31.76    412
31.78    439
31.8     456
31.82    433
31.84    403
31.86    427
31.88    417
31.9     494
31.92    471
31.94    441
31.96    457
31.98    448
32.0     428
32.02    422
32.04    463
32.06    513
32.08    528
32.1     587
32.12    542
32.14    458
32.16    391
32.18    332
32.2     299
32.22    360
32.24    451
32.26    493
32.28    525
32.3     480
32.32    407
32.34    337
32.36    346
32.38    373
32.4     406
32.42    504
32.44    570
32.46    679
32.48    706
32.5     670
32.52    613
32.54    475
32.56    436
32.58    366
32.6     263
32.62    260
32.64    283
32.66    355
32.68    370
32.7     393
32.72    392
32.74    376
32.76    470
32.78    507
32.8     573
32.82    656
32.84    741
32.86    739
32.88    685
32.9     627
32.92    550
32.94    502
32.96    516
32.98    533
33.0     547
33.02    566
33.04    590
33.06    580
33.08    596
33.1     629
33.12    607
33.14    639
33.16    706
33.18    726
33.2     720
33.22    697
33.24    656
33.26    720
33.28    714
33.3     733
33.32    786
33.34    837
33.36    946
33.38    1059
33.4     1234
33.42    1470
33.44    1826
33.46    2447
33.48    3241
33.5     4456
33.52    6186
33.54    8572
33.56    11261
33.58    13413
33.6     14457
33.62    14270
33.64    12911
33.66    10628
33.68    7770
33.7     4988
33.72    2840
33.74    1733
33.76    1346
33.78    1165
33.8     1034
33.82    949
33.84    877
33.86    800
33.88    701
33.9     708
33.92    711
33.94    704
33.96    790
33.98    817
34.0     812
34.02    767
34.04    647
34.06    547
34.08    473
34.1     413
34.12    417
34.14    497
34.16    571
34.18    706
34.2     736
34.22    755
34.24    655
34.26    540
34.28    440
34.3     375
34.32    395
34.34    451
34.36    466
34.38    520
34.4     433
34.42    411
34.44    334
34.46    302
34.48    353
34.5     434
34.52    503
34.54    576
34.56    621
34.58    578
34.6     550
34.62    590
34.64    575
34.66    656
34.68    666
34.7     719
34.72    719
34.74    667
34.76    591
34.78    471
34.8     467
34.82    525
34.84    591
34.86    786
34.88    887
34.9     1106
34.92    1264
34.94    1393
34.96    1578
34.98    1909
35.0     2573
35.02    3909
35.04    6305
35.06    9116
35.08    11488
35.1     12966
35.12    13271
35.14    12293
35.16    10274
35.18    7617
35.2     4884
35.22    2861
35.24    1865
35.26    1372
35.28    1068
35.3     894
35.32    772
35.34    708
35.36    618
35.38    621
35.4     613
35.42    695
35.44    696
35.46    725
35.48    708
35.5     709
35.52    638
35.54    622
35.56    546
35.58    550
35.6     562
35.62    638
35.64    647
35.66    716
35.68    715
35.7     642
35.72    599
35.74    563
35.76    509
35.78    526
35.8     608
35.82    620
35.84    632
35.86    672
35.88    606
35.9     519
35.92    593
35.94    591
35.96    575
35.98    626
36.0     744
36.02    722
36.04    754
36.06    753
36.08    733
36.1     718
36.12    799
36.14    834
36.16    867
36.18    939
36.2     1058
36.22    1133
36.24    1356
36.26    1621
36.28    1944
36.3     2416
36.32    3058
36.34    3911
36.36    5376
36.38    8030
36.4     12556
36.42    18580
36.44    24315
36.46    28235
36.48    29707
36.5     28544
36.52    24749
36.54    19111
36.56    12927
36.58    7569
36.6     4254
36.62    2786
36.64    1960
36.66    1425
36.68    1237
36.7     1247
36.72    1246
36.74    1236
36.76    1224
36.78    1108
36.8     962
36.82    844
36.84    776
36.86    762
36.88    773
36.9     855
36.92    886
36.94    789
36.96    733
36.98    656
37.0     577
37.02    543
37.04    632
37.06    678
37.08    698
37.1     736
37.12    725
37.14    666
37.16    670
37.18    675
37.2     677
37.22    687
37.24    688
37.26    656
37.28    642
37.3     646
37.32    721
37.34    923
37.36    1154
37.38    1257
37.4     1296
37.42    1209
37.44    955
37.46    703
37.48    434
37.5     287
37.52    272
37.54    440
37.56    633
37.58    710
37.6     733
37.62    679
37.64    534
37.66    447
37.68    335
37.7     345
37.72    378
37.74    533
37.76    641
37.78    675
37.8     633
37.82    562
37.84    449
37.86    402
37.88    355
37.9     372
37.92    403
37.94    468
37.96    545
37.98    563
38.0     543
38.02    525
38.04    463
38.06    417
38.08    410
38.1     381
38.12    394
38.14    449
38.16    479
38.18    496
38.2     545
38.22    644
38.24    647
38.26    675
38.28    664
38.3     590
38.32    472
38.34    427
38.36    301
38.38    305
38.4     318
38.42    453
38.44    497
38.46    617
38.48    610
38.5     617
38.52    532
38.54    509
38.56    437
38.58    395
38.6     339
38.62    417
38.64    400
38.66    446
38.68    485
38.7     522
38.72    512
38.74    516
38.76    515
38.78    519
38.8     487
38.82    568
38.84    632
38.86    652
38.88    713
38.9     669
38.92    585
38.94    475
38.96    422
38.98    363
39.0     261
39.02    301
39.04    370
39.06    391
39.08    438
39.1     474
39.12    457
39.14    460
39.16    462
39.18    423
39.2     389
39.22    407
39.24    433
39.26    453
39.28    526
39.3     605
39.32    618
39.34    665
39.36    613
39.38    576
39.4     535
39.42    488
39.44    403
39.46    346
39.48    379
39.5     413
39.52    454
39.54    492
39.56    544
39.58    567
39.6     548
39.62    560
39.64    503
39.66    473
39.68    465
39.7     467
39.72    475
39.74    517
39.76    512
39.78    451
39.8     463
39.82    490
39.84    442
39.86    448
39.88    434
39.9     394
39.92    469
39.94    515
39.96    498
39.98    564
40.0     673
40.02    700
40.04    751
40.06    815
40.08    839
40.1     793
40.12    810
40.14    737
40.16    736
40.18    761
40.2     791
40.22    785
40.24    782
40.26    741
40.28    744
40.3     733
40.32    732
40.34    752
40.36    832
40.38    903
40.4     923
40.42    855
40.44    796
40.46    754
40.48    702
40.5     660
40.52    674
40.54    749
40.56    796
40.58    866
40.6     912
40.62    933
40.64    927
40.66    966
40.68    893
40.7     876
40.72    842
40.74    829
40.76    774
40.78    828
40.8     883
40.82    961
40.84    958
40.86    1054
40.88    1055
40.9     1126
40.92    1089
40.94    1059
40.96    952
40.98    957
41.0     1001
41.02    1063
41.04    1111
41.06    1255
41.08    1371
41.1     1557
41.12    1695
41.14    1803
41.16    1897
41.18    2059
41.2     2169
41.22    2289
41.24    2438
41.26    2756
41.28    3188
41.3     3840
41.32    4627
41.34    5714
41.36    7123
41.38    8855
41.4     11171
41.42    14829
41.44    20656
41.46    31356
41.48    48752
41.5     70464
41.52    89864
41.54    102282
41.56    105001
41.58    98083
41.6     82928
41.62    62337
41.64    40551
41.66    23371
41.68    13744
41.7     9825
41.72    7651
41.74    5983
41.76    4475
41.78    3648
41.8     3207
41.82    2921
41.84    2741
41.86    2675
41.88    2493
41.9     2205
41.92    1925
41.94    1617
41.96    1412
41.98    1348
42.0     1363
42.02    1426
42.04    1464
42.06    1494
42.08    1459
42.1     1357
42.12    1271
42.14    1137
42.16    1072
42.18    968
42.2     942
42.22    917
42.24    843
42.26    824
42.28    840
42.3     838
42.32    843
42.34    898
42.36    925
42.38    888
42.4     883
42.42    908
42.44    914
42.46    982
42.48    1011
42.5     1022
42.52    1021
42.54    1055
42.56    984
42.58    902
42.6     816
42.62    759
42.64    746
42.66    786
42.68    791
42.7     774
42.72    791
42.74    783
42.76    763
42.78    773
42.8     809
42.82    829
42.84    881
42.86    941
42.88    927
42.9     849
42.92    783
42.94    649
42.96    524
42.98    506
43.0     550
43.02    580
43.04    686
43.06    815
43.08    961
43.1     990
43.12    978
43.14    910
43.16    816
43.18    715
43.2     631
43.22    630
43.24    668
43.26    690
43.28    778
43.3     766
43.32    733
43.34    702
43.36    661
43.38    604
43.4     604
43.42    625
43.44    612
43.46    641
43.48    666
43.5     683
43.52    704
43.54    759
43.56    790
43.58    775
43.6     745
43.62    652
43.64    570
43.66    486
43.68    394
43.7     359
43.72    446
43.74    531
43.76    635
43.78    732
43.8     779
43.82    762
43.84    698
43.86    601
43.88    541
43.9     497
43.92    511
43.94    550
43.96    663
43.98    738
44.0     745
44.02    724
44.04    686
44.06    635
44.08    588
44.1     545
44.12    487
44.14    503
44.16    507
44.18    536
44.2     541
44.22    556
44.24    591
44.26    550
44.28    542
44.3     573
44.32    547
44.34    583
44.36    543
44.38    547
44.4     521
44.42    526
44.44    465
44.46    405
44.48    421
44.5     431
44.52    440
44.54    518
44.56    530
44.58    562
44.6     642
44.62    749
44.64    765
44.66    751
44.68    751
44.7     704
44.72    641
44.74    572
44.76    517
44.78    449
44.8     469
44.82    534
44.84    602
44.86    655
44.88    677
44.9     725
44.92    797
44.94    899
44.96    1055
44.98    1292
45.0     1640
45.02    2001
45.04    2293
45.06    2330
45.08    2160
45.1     1923
45.12    1628
45.14    1234
45.16    880
45.18    732
45.2     690
45.22    722
45.24    738
45.26    689
45.28    705
45.3     692
45.32    669
45.34    554
45.36    498
45.38    559
45.4     574
45.42    583
45.44    553
45.46    581
45.48    640
45.5     565
45.52    498
45.54    481
45.56    525
45.58    604
45.6     568
45.62    596
45.64    603
45.66    643
45.68    605
45.7     490
45.72    458
45.74    435
45.76    401
45.78    430
45.8     442
45.82    537
45.84    620
45.86    697
45.88    741
45.9     745
45.92    730
45.94    605
45.96    522
45.98    492
46.0     417
46.02    417
46.04    482
46.06    547
46.08    595
46.1     639
46.12    675
46.14    601
46.16    551
46.18    471
46.2     381
46.22    367
46.24    351
46.26    365
46.28    387
46.3     479
46.32    599
46.34    634
46.36    669
46.38    699
46.4     670
46.42    613
46.44    506
46.46    411
46.48    315
46.5     284
46.52    369
46.54    433
46.56    467
46.58    536
46.6     550
46.62    504
46.64    487
46.66    418
46.68    377
46.7     437
46.72    461
46.74    491
46.76    466
46.78    520
46.8     516
46.82    478
46.84    572
46.86    534
46.88    580
46.9     608
46.92    576
46.94    572
46.96    500
46.98    445
47.0     429
47.02    397
47.04    431
47.06    427
47.08    507
47.1     575
47.12    666
47.14    657
47.16    613
47.18    541
47.2     474
47.22    354
47.24    315
47.26    307
47.28    328
47.3     412
47.32    531
47.34    628
47.36    712
47.38    761
47.4     718
47.42    668
47.44    642
47.46    518
47.48    406
47.5     329
47.52    343
47.54    382
47.56    410
47.58    488
47.6     544
47.62    605
47.64    618
47.66    561
47.68    505
47.7     468
47.72    430
47.74    402
47.76    382
47.78    455
47.8     526
47.82    596
47.84    663
47.86    725
47.88    749
47.9     759
47.92    705
47.94    649
47.96    568
47.98    580
48.0     525
48.02    481
48.04    533
48.06    533
48.08    598
48.1     611
48.12    613
48.14    607
48.16    629
48.18    701
48.2     628
48.22    575
48.24    578
48.26    471
48.28    438
48.3     307
48.32    246
48.34    242
48.36    272
48.38    381
48.4     443
48.42    528
48.44    609
48.46    640
48.48    636
48.5     577
48.52    577
48.54    542
48.56    504
48.58    519
48.6     555
48.62    515
48.64    485
48.66    443
48.68    400
48.7     365
48.72    362
48.74    317
48.76    373
48.78    429
48.8     533
48.82    556
48.84    591
48.86    608
48.88    591
48.9     505
48.92    477
48.94    471
48.96    491
48.98    488
49.0     480
49.02    503
49.04    530
49.06    491
49.08    429
49.1     384
49.12    432
49.14    479
49.16    417
49.18    412
49.2     430
49.22    533
49.24    581
49.26    614
49.28    657
49.3     710
49.32    764
49.34    698
49.36    599
49.38    578
49.4     532
49.42    447
49.44    375
49.46    366
49.48    396
49.5     442
49.52    488
49.54    557
49.56    667
49.58    713
49.6     707
49.62    597
49.64    532
49.66    447
49.68    398
49.7     365
49.72    352
49.74    445
49.76    547
49.78    586
49.8     680
49.82    659
49.84    636
49.86    563
49.88    485
49.9     444
49.92    363
49.94    333
49.96    383
49.98    393
50.0     479
50.02    543
50.04    576
50.06    606
50.08    622
50.1     620
50.12    582
50.14    569
50.16    557
50.18    533
50.2     565
50.22    608
50.24    616
50.26    611
50.28    601
50.3     586
50.32    542
50.34    480
50.36    428
50.38    411
50.4     415
50.42    466
50.44    481
50.46    460
50.48    535
50.5     557
50.52    574
50.54    525
50.56    592
50.58    629
50.6     675
50.62    708
50.64    661
50.66    604
50.68    596
50.7     522
50.72    495
50.74    427
50.76    452
50.78    433
50.8     439
50.82    383
50.84    399
50.86    427
50.88    414
50.9     431
50.92    475
50.94    574
50.96    591
50.98    529
51.0     490
51.02    486
51.04    544
51.06    506
51.08    434
51.1     462
51.12    532
51.14    599
51.16    535
51.18    440
51.2     453
51.22    497
51.24    486
51.26    398
51.28    366
51.3     359
51.32    443
51.34    443
51.36    433
51.38    459
51.4     568
51.42    621
51.44    678
51.46    639
51.48    618
51.5     563
51.52    591
51.54    518
51.56    477
51.58    447
51.6     496
51.62    515
51.64    599
51.66    575
51.68    571
51.7     577
51.72    571
51.74    513
51.76    469
51.78    412
51.8     446
51.82    420
51.84    416
51.86    363
51.88    349
51.9     362
51.92    353
51.94    361
51.96    424
51.98    465
52.0     612
52.02    702
52.04    716
52.06    753
52.08    784
52.1     720
52.12    691
52.14    598
52.16    535
52.18    541
52.2     596
52.22    599
52.24    566
52.26    567
52.28    596
52.3     511
52.32    481
52.34    399
52.36    405
52.38    486
52.4     482
52.42    435
52.44    461
52.46    513
52.48    622
52.5     651
52.52    654
52.54    652
52.56    750
52.58    734
52.6     673
52.62    546
52.64    499
52.66    539
52.68    576
52.7     597
52.72    566
52.74    541
52.76    625
52.78    611
52.8     614
52.82    539
52.84    487
52.86    518
52.88    568
52.9     618
52.92    559
52.94    527
52.96    569
52.98    582
53.0     559
53.02    500
53.04    494
53.06    614
53.08    730
53.1     791
53.12    797
53.14    919
53.16    990
53.18    1005
53.2     974
53.22    905
53.24    957
53.26    1044
53.28    1042
53.3     1077
53.32    1301
53.34    1636
53.36    2049
53.38    2706
53.4     3763
53.42    5395
53.44    7273
53.46    8821
53.48    9659
53.5     9757
53.52    9163
53.54    7802
53.56    5997
53.58    4166
53.6     2748
53.62    2058
53.64    1709
53.66    1497
53.68    1283
53.7     1170
53.72    1078
53.74    969
53.76    864
53.78    771
53.8     727
53.82    772
53.84    782
53.86    752
53.88    697
53.9     690
53.92    672
53.94    694
53.96    721
53.98    704
54.0     723
54.02    724
54.04    639
54.06    546
54.08    469
54.1     456
54.12    494
54.14    549
54.16    605
54.18    647
54.2     698
54.22    728
54.24    692
54.26    592
54.28    546
54.3     535
54.32    518
54.34    501
54.36    438
54.38    412
54.4     466
54.42    561
54.44    559
54.46    523
54.48    562
54.5     565
54.52    566
54.54    551
54.56    476
54.58    444
54.6     501
54.62    564
54.64    554
54.66    557
54.68    572
54.7     607
54.72    643
54.74    655
54.76    582
54.78    509
54.8     512
54.82    488
54.84    410
54.86    352
54.88    351
54.9     389
54.92    544
54.94    590
54.96    577
54.98    607
55.0     621
55.02    585
55.04    521
55.06    441
55.08    408
55.1     395
55.12    474
55.14    383
55.16    403
55.18    426
55.2     469
55.22    471
55.24    482
55.26    480
55.28    504
55.3     492
55.32    522
55.34    474
55.36    506
55.38    488
55.4     516
55.42    477
55.44    464
55.46    497
55.48    526
55.5     515
55.52    571
55.54    591
55.56    644
55.58    717
55.6     772
55.62    719
55.64    726
55.66    740
55.68    643
55.7     563
55.72    480
55.74    366
55.76    313
55.78    351
55.8     307
55.82    341
55.84    456
55.86    517
55.88    557
55.9     635
55.92    610
55.94    582
55.96    591
55.98    544
56.0     432
56.02    477
56.04    407
56.06    350
56.08    320
56.1     299
56.12    313
56.14    401
56.16    394
56.18    339
56.2     393
56.22    477
56.24    501
56.26    550
56.28    564
56.3     606
56.32    637
56.34    658
56.36    530
56.38    493
56.4     477
56.42    442
56.44    445
56.46    431
56.48    445
56.5     500
56.52    517
56.54    543
56.56    554
56.58    566
56.6     573
56.62    567
56.64    594
56.66    557
56.68    564
56.7     559
56.72    541
56.74    510
56.76    539
56.78    525
56.8     483
56.82    493
56.84    510
56.86    542
56.88    586
56.9     589
56.92    555
56.94    526
56.96    548
56.98    527
57.0     511
57.02    531
57.04    489
57.06    598
57.08    624
57.1     640
57.12    600
57.14    533
57.16    477
57.18    464
57.2     538
57.22    511
57.24    492
57.26    509
57.28    497
57.3     557
57.32    578
57.34    530
57.36    529
57.38    598
57.4     678
57.42    675
57.44    685
57.46    641
57.48    628
57.5     644
57.52    619
57.54    574
57.56    599
57.58    623
57.6     620
57.62    650
57.64    704
57.66    719
57.68    756
57.7     768
57.72    735
57.74    749
57.76    783
57.78    824
57.8     839
57.82    841
57.84    843
57.86    828
57.88    912
57.9     926
57.92    936
57.94    1018
57.96    1087
57.98    1252
58.0     1317
58.02    1411
58.04    1510
58.06    1729
58.08    1987
58.1     2228
58.12    2582
58.14    3088
58.16    3760
58.18    4764
58.2     6300
58.22    8686
58.24    12192
58.26    16317
58.28    20092
58.3     22577
58.32    23228
58.34    22032
58.36    19144
58.38    15101
58.4     10845
58.42    7207
58.44    4818
58.46    3511
58.48    2923
58.5     2426
58.52    2101
58.54    1968
58.56    1833
58.58    1686
58.6     1618
58.62    1548
58.64    1342
58.66    1312
58.68    1204
58.7     1081
58.72    1005
58.74    960
58.76    821
58.78    717
58.8     761
58.82    716
58.84    710
58.86    711
58.88    664
58.9     670
58.92    692
58.94    678
58.96    590
58.98    583
59.0     588
59.02    609
59.04    725
59.06    705
59.08    676
59.1     644
59.12    704
59.14    677
59.16    665
59.18    610
59.2     521
59.22    516
59.24    583
59.26    587
59.28    597
59.3     644
59.32    703
59.34    702
59.36    736
59.38    668
59.4     578
59.42    472
59.44    503
59.46    457
59.48    449
59.5     472
59.52    441
59.54    483
59.56    565
59.58    568
59.6     532
59.62    461
59.64    529
59.66    539
59.68    575
59.7     575
59.72    500
59.74    536
59.76    503
59.78    478
59.8     427
59.82    354
59.84    398
59.86    452
59.88    536
59.9     547
59.92    594
59.94    681
59.96    706
59.98    736
60.0     762
60.02    727
60.04    672
60.06    641
60.08    570
60.1     484
60.12    429
60.14    353
60.16    320
60.18    324
60.2     434
60.22    494
60.24    586
60.26    673
60.28    685
60.3     684
60.32    667
60.34    578
60.36    501
60.38    482
60.4     456
60.42    426
60.44    515
60.46    551
60.48    548
60.5     582
60.52    631
60.54    548
60.56    539
60.58    586
60.6     506
60.62    462
60.64    496
60.66    450
60.68    378
60.7     371
60.72    370
60.74    340
60.76    406
60.78    463
60.8     497
60.82    545
60.84    636
60.86    628
60.88    632
60.9     646
60.92    608
60.94    617
60.96    570
60.98    493
61.0     465
61.02    491
61.04    573
61.06    596
61.08    610
61.1     641
61.12    612
61.14    634
61.16    560
61.18    492
61.2     468
61.22    470
61.24    492
61.26    468
61.28    451
61.3     518
61.32    536
61.34    522
61.36    523
61.38    574
61.4     679
61.42    695
61.44    717
61.46    716
61.48    734
61.5     770
61.52    756
61.54    675
61.56    570
61.58    509
61.6     543
61.62    552
61.64    570
61.66    648
61.68    687
61.7     785
61.72    921
61.74    996
61.76    1019
61.78    1093
61.8     1179
61.82    1190
61.84    1238
61.86    1302
61.88    1415
61.9     1563
61.92    1842
61.94    2233
61.96    2802
61.98    3766
62.0     5373
62.02    8107
62.04    12019
62.06    16198
62.08    19829
62.1     22161
62.12    22923
62.14    21823
62.16    19131
62.18    15411
62.2     11558
62.22    8489
62.24    6408
62.26    4901
62.28    3737
62.3     2936
62.32    2401
62.34    2009
62.36    1740
62.38    1593
62.4     1486
62.42    1438
62.44    1384
62.46    1263
62.48    1062
62.5     900
62.52    812
62.54    734
62.56    606
62.58    554
62.6     546
62.62    585
62.64    625
62.66    658
62.68    679
62.7     729
62.72    814
62.74    863
62.76    775
62.78    732
62.8     706
62.82    694
62.84    598
62.86    592
62.88    545
62.9     533
62.92    486
62.94    493
62.96    464
62.98    501
63.0     474
63.02    516
63.04    462
63.06    559
63.08    523
63.1     543
63.12    458
63.14    466
63.16    450
63.18    436
63.2     466
63.22    514
63.24    508
63.26    566
63.28    579
63.3     661
63.32    654
63.34    650
63.36    639
63.38    617
63.4     644
63.42    571
63.44    524
63.46    426
63.48    372
63.5     403
63.52    404
63.54    409
63.56    427
63.58    448
63.6     515
63.62    485
63.64    550
63.66    551
63.68    523
63.7     585
63.72    630
63.74    632
63.76    608
63.78    559
63.8     556
63.82    500
63.84    494
63.86    516
63.88    439
63.9     409
63.92    391
63.94    367
63.96    356
63.98    329
64.0     436
64.02    486
64.04    552
64.06    628
64.08    637
64.1     629
64.12    577
64.14    550
64.16    500
64.18    447
64.2     457
64.22    403
64.24    416
64.26    422
64.28    446
64.3     545
64.32    574
64.34    640
64.36    673
64.38    655
64.4     645
64.42    601
64.44    642
64.46    643
64.48    623
64.5     685
64.52    632
64.54    667
64.56    772
64.58    799
64.6     953
64.62    1041
64.64    1262
64.66    1503
64.68    1944
64.7     2617
64.72    3478
64.74    4504
64.76    5411
64.78    5919
64.8     6103
64.82    5796
64.84    5229
64.86    4333
64.88    3455
64.9     2715
64.92    2190
64.94    1751
64.96    1445
64.98    1180
65.0     967
65.02    820
65.04    742
65.06    633
65.08    595
65.1     635
65.12    726
65.14    755
65.16    820
65.18    841
65.2     797
65.22    743
65.24    738
65.26    667
65.28    618
65.3     531
65.32    491
65.34    405
65.36    364
65.38    377
65.4     372
65.42    372
65.44    462
65.46    503
65.48    534
65.5     533
65.52    583
65.54    556
65.56    594
65.58    622
65.6     605
65.62    505
65.64    546
65.66    548
65.68    518
65.7     538
65.72    535
65.74    469
65.76    472
65.78    439
65.8     453
65.82    415
65.84    460
65.86    484
65.88    474
65.9     475
65.92    430
65.94    366
65.96    382
65.98    404
66.0     431
66.02    470
66.04    454
66.06    532
66.08    558
66.1     571
66.12    595
66.14    620
66.16    612
66.18    588
66.2     528
66.22    525
66.24    477
66.26    509
66.28    467
66.3     393
66.32    438
66.34    467
66.36    443
66.38    459
66.4     519
66.42    559
66.44    557
66.46    588
66.48    559
66.5     527
66.52    501
66.54    410
66.56    363
66.58    345
66.6     420
66.62    427
66.64    389
66.66    439
66.68    480
66.7     484
66.72    464
66.74    444
66.76    496
66.78    545
66.8     552
66.82    565
66.84    508
66.86    473
66.88    463
66.9     435
66.92    435
66.94    412
66.96    388
66.98    344
67.0     318
67.02    303
67.04    285
67.06    298
67.08    363
67.1     445
67.12    463
67.14    494
67.16    482
67.18    479
67.2     510
67.22    438
67.24    454
67.26    462
67.28    450
67.3     456
67.32    423
67.34    438
67.36    470
67.38    519
67.4     575
67.42    601
67.44    674
67.46    712
67.48    664
67.5     611
67.52    530
67.54    521
67.56    517
67.58    454
67.6     395
67.62    367
67.64    384
67.66    321
67.68    364
67.7     389
67.72    387
67.74    468
67.76    458
67.78    517
67.8     570
67.82    610
67.84    659
67.86    595
67.88    609
67.9     553
67.92    512
67.94    481
67.96    429
67.98    432
68.0     400
68.02    369
68.04    400
68.06    397
68.08    366
68.1     434
68.12    486
68.14    552
68.16    581
68.18    583
68.2     602
68.22    543
68.24    529
68.26    505
68.28    462
68.3     500
68.32    490
68.34    504
68.36    485
68.38    490
68.4     480
68.42    434
68.44    445
68.46    497
68.48    551
68.5     582
68.52    589
68.54    625
68.56    581
68.58    551
68.6     541
68.62    618
68.64    622
68.66    706
68.68    694
68.7     676
68.72    699
68.74    728
68.76    702
68.78    742
68.8     817
68.82    961
68.84    1025
68.86    1236
68.88    1427
68.9     1715
68.92    2130
68.94    2794
68.96    3584
68.98    4455
69.0     5240
69.02    5693
69.04    5791
69.06    5450
69.08    4827
69.1     3954
69.12    3071
69.14    2317
69.16    1715
69.18    1339
69.2     1089
69.22    952
69.24    879
69.26    769
69.28    723
69.3     679
69.32    659
69.34    608
69.36    592
69.38    591
69.4     598
69.42    652
69.44    643
69.46    664
69.48    649
69.5     675
69.52    711
69.54    705
69.56    630
69.58    553
69.6     515
69.62    448
69.64    433
69.66    424
69.68    399
69.7     403
69.72    432
69.74    435
69.76    402
69.78    376
69.8     418
69.82    426
69.84    442
69.86    392
69.88    396
69.9     380
69.92    419
69.94    475
69.96    484
69.98    500
70.0     484
70.02    478
70.04    474
70.06    485
70.08    476
70.1     486
70.12    506
70.14    519
70.16    547
70.18    640
70.2     690
70.22    734
70.24    781
70.26    738
70.28    646
70.3     593
70.32    556
70.34    526
70.36    551
70.38    598
70.4     597
70.42    591
70.44    628
70.46    644
70.48    720
70.5     863
70.52    1026
70.54    1167
70.56    1404
70.58    1694
70.6     1967
70.62    2337
70.64    2710
70.66    3024
70.68    3202
70.7     3163
70.72    2870
70.74    2420
70.76    1933
70.78    1449
70.8     1012
70.82    788
70.84    691
70.86    653
70.88    653
70.9     730
70.92    758
70.94    769
70.96    804
70.98    775
71.0     800
71.02    790
71.04    736
71.06    643
71.08    582
71.1     556
71.12    441
71.14    374
71.16    338
71.18    315
71.2     337
71.22    329
71.24    415
71.26    461
71.28    469
71.3     493
71.32    562
71.34    585
71.36    617
71.38    631
71.4     625
71.42    625
71.44    656
71.46    636
71.48    585
71.5     601
71.52    564
71.54    529
71.56    516
71.58    483
71.6     453
71.62    416
71.64    400
71.66    387
71.68    377
71.7     434
71.72    480
71.74    539
71.76    623
71.78    624
71.8     642
71.82    655
71.84    636
71.86    624
71.88    633
71.9     630
71.92    598
71.94    506
71.96    479
71.98    412
72.0     426
72.02    449
72.04    479
72.06    492
72.08    517
72.1     536
72.12    588
72.14    663
72.16    704
72.18    757
72.2     865
72.22    935
72.24    943
72.26    1011
72.28    1137
72.3     1186
72.32    1272
72.34    1354
72.36    1464
72.38    1665
72.4     2088
72.42    2695
72.44    3566
72.46    4738
72.48    5841
72.5     6682
72.52    7148
72.54    7158
72.56    6698
72.58    5835
72.6     4787
72.62    3758
72.64    2941
72.66    2405
72.68    1995
72.7     1739
72.72    1500
72.74    1305
72.76    1141
72.78    978
72.8     855
72.82    704
72.84    617
72.86    594
72.88    546
72.9     542
72.92    558
72.94    559
72.96    599
72.98    654
73.0     667
73.02    600
73.04    584
73.06    579
73.08    505
73.1     520
73.12    586
73.14    610
73.16    609
73.18    605
73.2     610
73.22    597
73.24    622
73.26    670
73.28    702
73.3     892
73.32    1039
73.34    1164
73.36    1253
73.38    1340
73.4     1430
73.42    1341
73.44    1332
73.46    1236
73.48    1114
73.5     1091
73.52    944
73.54    925
73.56    850
73.58    718
73.6     621
73.62    472
73.64    465
73.66    439
73.68    441
73.7     491
73.72    470
73.74    547
73.76    499
73.78    482
73.8     530
73.82    592
73.84    661
73.86    771
73.88    756
73.9     693
73.92    621
73.94    616
73.96    583
73.98    618
74.0     633
74.02    690
74.04    745
74.06    849
74.08    909
74.1     994
74.12    1210
74.14    1607
74.16    1992
74.18    2435
74.2     2751
74.22    2996
74.24    3093
74.26    3009
74.28    2703
74.3     2355
74.32    1981
74.34    1698
74.36    1465
74.38    1283
74.4     1186
74.42    1149
74.44    1057
74.46    964
74.48    836
74.5     827
74.52    784
74.54    800
74.56    815
74.58    716
74.6     775
74.62    755
74.64    722
74.66    755
74.68    764
74.7     822
74.72    870
74.74    971
74.76    1048
74.78    1106
74.8     1411
74.82    1705
74.84    2095
74.86    2580
74.88    2955
74.9     3225
74.92    3265
74.94    3143
74.96    2843
74.98    2475
75.0     2094
75.02    1630
75.04    1327
75.06    1108
75.08    933
75.1     806
75.12    646
75.14    631
75.16    699
75.18    716
75.2     682
75.22    666
75.24    701
75.26    614
75.28    613
75.3     557
75.32    577
75.34    686
75.36    760
75.38    704
75.4     751
75.42    776
75.44    724
75.46    683
75.48    692
75.5     592
75.52    615
75.54    549
75.56    494
75.58    490
75.6     559
75.62    538
75.64    480
75.66    447
75.68    364
75.7     286
75.72    312
75.74    256
75.76    309
75.78    409
75.8     449
75.82    489
75.84    518
75.86    536
75.88    551
75.9     542
75.92    524
75.94    453
75.96    437
75.98    399
76.0     372
76.02    397
76.04    458
76.06    432
76.08    430
76.1     347
76.12    354
76.14    351
76.16    389
76.18    464
76.2     512
76.22    550
76.24    605
76.26    524
76.28    542
76.3     505
76.32    587
76.34    596
76.36    643
76.38    651
76.4     621
76.42    572
76.44    518
76.46    444
76.48    404
76.5     380
76.52    412
76.54    343
76.56    331
76.58    298
76.6     345
76.62    319
76.64    336
76.66    429
76.68    460
76.7     495
76.72    497
76.74    444
76.76    459
76.78    469
76.8     520
76.82    494
76.84    562
76.86    634
76.88    598
76.9     537
76.92    474
76.94    442
76.96    460
76.98    481
77.0     485
77.02    490
77.04    567
77.06    527
77.08    486
77.1     484
77.12    539
77.14    628
77.16    690
77.18    740
77.2     763
77.22    811
77.24    883
77.26    826
77.28    922
77.3     1076
77.32    1268
77.34    1507
77.36    1666
77.38    1915
77.4     2331
77.42    2871
77.44    3654
77.46    4681
77.48    5942
77.5     6964
77.52    7589
77.54    7831
77.56    7503
77.58    6845
77.6     5861
77.62    4757
77.64    3844
77.66    3190
77.68    2746
77.7     2285
77.72    1901
77.74    1671
77.76    1397
77.78    1222
77.8     1012
77.82    920
77.84    907
77.86    842
77.88    812
77.9     691
77.92    677
77.94    650
77.96    566
77.98    568
78.0     588
78.02    570
78.04    553
78.06    515
78.08    486
78.1     414
78.12    492
78.14    463
78.16    449
78.18    427
78.2     458
78.22    427
78.24    404
78.26    422
78.28    423
78.3     444
78.32    472
78.34    405
78.36    346
78.38    332
78.4     372
78.42    402
78.44    423
78.46    495
78.48    556
78.5     630
78.52    609
78.54    567
78.56    527
78.58    530
78.6     452
78.62    446
78.64    455
78.66    467
78.68    432
78.7     441
78.72    404
78.74    423
78.76    411
78.78    425
78.8     408
78.82    483
78.84    586
78.86    605
78.88    550
78.9     517
78.92    509
78.94    474
78.96    378
78.98    357
79.0     316
79.02    287
79.04    305
79.06    264
79.08    238
79.1     246
79.12    315
79.14    377
79.16    430
79.18    511
79.2     546
79.22    469
79.24    511
79.26    486
79.28    462
79.3     469
79.32    475
79.34    519
79.36    491
79.38    463
79.4     368
79.42    289
79.44    311
79.46    247
79.48    253
79.5     322
79.52    321
79.54    385
79.56    392
79.58    368
79.6     399
79.62    462
79.64    554
79.66    575
79.68    586
79.7     642
79.72    618
79.74    591
79.76    518
79.78    414
79.8     477
79.82    482
79.84    506
79.86    529
79.88    504
79.9     584
79.92    616
79.94    605
79.96    631
79.98    654
80.0     700
80.02    730
80.04    712
80.06    701
80.08    646
80.1     613
80.12    644
80.14    610
80.16    585
80.18    576
80.2     529
80.22    553
80.24    507
80.26    480
80.28    448
80.3     449
80.32    517
80.34    472
80.36    367
80.38    306
80.4     269
80.42    247
80.44    251
80.46    274
80.48    297
80.5     367
80.52    433
80.54    419
80.56    342
80.58    298
80.6     357
80.62    336
80.64    363
80.66    401
80.68    440
80.7     489
80.72    516
80.74    475
80.76    465
80.78    448
80.8     484
80.82    434
80.84    427
80.86    412
80.88    386
80.9     375
80.92    375
80.94    347
80.96    391
80.98    393
81.0     407
81.02    432
81.04    459
81.06    442
81.08    456
81.1     462
81.12    490
81.14    488
81.16    473
81.18    468
81.2     436
81.22    406
81.24    395
81.26    316
81.28    283
81.3     227
81.32    242
81.34    249
81.36    265
81.38    274
81.4     301
81.42    345
81.44    434
81.46    445
81.48    465
81.5     459
81.52    512
81.54    528
81.56    508
81.58    447
81.6     421
81.62    439
81.64    456
81.66    443
81.68    385
81.7     330
81.72    337
81.74    336
81.76    284
81.78    280
81.8     301
81.82    435
81.84    465
81.86    449
81.88    442
81.9     514
81.92    596
81.94    616
81.96    557
81.98    484
82.0     459
82.02    442
82.04    341
82.06    268
82.08    317
82.1     343
82.12    340
82.14    301
82.16    273
82.18    262
82.2     304
82.22    316
82.24    288
82.26    363
82.28    411
82.3     416
82.32    410
82.34    446
82.36    441
82.38    464
82.4     473
82.42    397
82.44    355
82.46    387
82.48    437
82.5     492
82.52    483
82.54    526
82.56    440
82.58    427
82.6     393
82.62    335
82.64    358
82.66    389
82.68    470
82.7     447
82.72    375
82.74    371
82.76    334
82.78    297
82.8     290
82.82    336
82.84    396
82.86    469
82.88    485
82.9     464
82.92    443
82.94    445
82.96    478
82.98    466
83.0     451
83.02    445
83.04    418
83.06    426
83.08    408
83.1     416
83.12    431
83.14    357
83.16    467
83.18    492
83.2     464
83.22    408
83.24    353
83.26    383
83.28    366
83.3     346
83.32    350
83.34    271
83.36    363
83.38    361
83.4     373
83.42    302
83.44    270
83.46    330
83.48    354
83.5     337
83.52    335
83.54    356
83.56    397
83.58    367
83.6     379
83.62    396
83.64    389
83.66    447
83.68    485
83.7     461
83.72    441
83.74    422
83.76    394
83.78    337
83.8     339
83.82    338
83.84    337
83.86    358
83.88    348
83.9     348
83.92    344
83.94    325
83.96    364
83.98    361
84.0     370
84.02    354
84.04    478
84.06    476
84.08    483
84.1     460
84.12    475
84.14    470
84.16    429
84.18    322
84.2     288
84.22    246
84.24    319
84.26    355
84.28    410
84.3     391
84.32    450
84.34    465
84.36    425
84.38    344
84.4     340
84.42    367
84.44    485
84.46    553
84.48    550
84.5     468
84.52    409
84.54    349
84.56    302
84.58    232
84.6     226
84.62    310
84.64    457
84.66    504
84.68    540
84.7     492
84.72    503
84.74    579
84.76    693
84.78    729
84.8     706
84.82    703
84.84    706
84.86    628
84.88    585
84.9     479
84.92    418
84.94    443
84.96    463
84.98    422
85.0     347
85.02    319
85.04    340
85.06    327
85.08    375
85.1     394
85.12    417
85.14    438
85.16    385
85.18    359
85.2     335
85.22    315
85.24    349
85.26    437
85.28    510
85.3     551
85.32    602
85.34    627
85.36    579
85.38    519
85.4     495
85.42    442
85.44    422
85.46    409
85.48    360
85.5     355
85.52    366
85.54    383
85.56    335
85.58    296
85.6     323
85.62    300
85.64    335
85.66    311
85.68    316
85.7     362
85.72    381
85.74    393
85.76    397
85.78    371
85.8     357
85.82    388
85.84    479
85.86    503
85.88    495
85.9     463
85.92    480
85.94    470
85.96    449
85.98    371
86.0     365
86.02    426
86.04    469
86.06    459
86.08    389
86.1     336
86.12    412
86.14    375
86.16    355
86.18    321
86.2     410
86.22    497
86.24    550
86.26    610
86.28    681
86.3     747
86.32    951
86.34    1085
86.36    1320
86.38    1495
86.4     1673
86.42    1781
86.44    1792
86.46    1703
86.48    1523
86.5     1291
86.52    1119
86.54    905
86.56    848
86.58    712
86.6     622
86.62    585
86.64    504
86.66    478
86.68    474
86.7     457
86.72    408
86.74    394
86.76    455
86.78    429
86.8     446
86.82    440
86.84    426
86.86    442
86.88    431
86.9     444
86.92    440
86.94    471
86.96    489
86.98    470
87.0     490
87.02    428
87.04    360
87.06    350
87.08    337
87.1     390
87.12    431
87.14    381
87.16    315
87.18    299
87.2     243
87.22    175
87.24    133
87.26    131
87.28    206
87.3     332
87.32    419
87.34    422
87.36    430
87.38    486
87.4     467
87.42    442
87.44    357
87.46    295
87.48    335
87.5     321
87.52    348
87.54    378
87.56    368
87.58    381
87.6     429
87.62    389
87.64    395
87.66    386
87.68    344
87.7     305
87.72    350
87.74    349
87.76    346
87.78    312
87.8     386
87.82    351
87.84    408
87.86    373
87.88    373
87.9     447
87.92    469
87.94    525
87.96    555
87.98    501
88.0     484
88.02    418
88.04    374
88.06    344
88.08    353
88.1     380
88.12    379
88.14    416
88.16    454
88.18    393
88.2     354
88.22    331
88.24    348
88.26    391
88.28    402
88.3     422
88.32    464
88.34    464
88.36    487
88.38    450
88.4     401
88.42    345
88.44    390
88.46    373
88.48    388
88.5     449
88.52    437
88.54    429
88.56    433
88.58    482
88.6     447
88.62    431
88.64    428
88.66    395
88.68    432
88.7     449
88.72    378
88.74    371
88.76    358
88.78    338
88.8     338
88.82    375
88.84    351
88.86    311
88.88    301
88.9     277
88.92    276
88.94    260
88.96    197
88.98    134
89.0     196
89.02    219
89.04    289
89.06    341
89.08    368
89.1     384
89.12    470
89.14    482
89.16    422
89.18    344
89.2     302
89.22    239
89.24    313
89.26    354
89.28    343
89.3     372
89.32    491
89.34    487
89.36    486
89.38    478
89.4     433
89.42    396
89.44    381
89.46    356
89.48    322
89.5     347
89.52    357
89.54    300
89.56    325
89.58    320
89.6     278
89.62    290
89.64    236
89.66    258
89.68    252
89.7     300
89.72    364
89.74    383
89.76    431
89.78    389
89.8     376
89.82    359
89.84    320
89.86    395
89.88    446
89.9     467
89.92    615
89.94    572
89.96    675
89.98    657
90.0     627
