?
5.0      369
5.02     369
5.04     475
5.06     410
5.08     420
5.1      416
5.12     403
5.14     433
5.16     408
5.18     379
5.2      397
5.22     387
5.24     395
5.26     448
5.28     447
5.3      439
5.32     476
5.34     498
5.36     484
5.38     476
5.4      442
5.42     408
5.44     416
5.46     447
5.48     420
5.5      430
5.52     469
5.54     470
5.56     506
5.58     502
5.6      508
5.62     549
5.64     581
5.66     584
5.68     563
5.7      560
5.72     529
5.74     501
5.76     477
5.78     422
5.8      438
5.82     451
5.84     459
5.86     452
5.88     509
5.9      535
5.92     533
5.94     534
5.96     469
5.98     481
6.0      449
6.02     449
6.04     468
6.06     479
6.08     550
6.1      562
6.12     579
6.14     559
6.16     540
6.18     577
6.2      536
6.22     525
6.24     514
6.26     558
6.28     526
6.3      560
6.32     542
6.34     535
6.36     544
6.38     560
6.4      582
6.42     542
6.44     549
6.46     542
6.48     537
6.5      556
6.52     557
6.54     552
6.56     534
6.58     573
6.6      607
6.62     604
6.64     615
6.66     568
6.68     586
6.7      554
6.72     575
6.74     537
6.76     527
6.78     567
6.8      591
6.82     607
6.84     616
6.86     597
6.88     604
6.9      614
6.92     609
6.94     637
6.96     630
6.98     682
7.0      644
7.02     608
7.04     592
7.06     568
7.08     526
7.1      546
7.12     560
7.14     599
7.16     578
7.18     622
7.2      618
7.22     605
7.24     637
7.26     614
7.28     650
7.3      700
7.32     711
7.34     688
7.36     680
7.38     689
7.4      739
7.42     791
7.44     811
7.46     809
7.48     846
7.5      805
7.52     773
7.54     752
7.56     756
7.58     697
7.6      736
7.62     784
7.64     759
7.66     754
7.68     711
7.7      684
7.72     706
7.74     677
7.76     709
7.78     679
7.8      724
7.82     709
7.84     735
7.86     730
7.88     698
7.9      697
7.92     704
7.94     684
7.96     736
7.98     777
8.0      757
8.02     738
8.04     792
8.06     803
8.08     768
8.1      756
8.12     760
8.14     743
8.16     725
8.18     762
8.2      704
8.22     704
8.24     737
8.26     695
8.28     704
8.3      760
8.32     758
8.34     758
8.36     773
8.38     808
8.4      812
8.42     825
8.44     791
8.46     723
8.48     755
8.5      783
8.52     723
8.54     698
8.56     682
8.58     699
8.6      669
8.62     707
8.64     705
8.66     719
8.68     782
8.7      781
8.72     753
8.74     753
8.76     711
8.78     750
8.8      657
8.82     724
8.84     757
8.86     749
8.88     806
8.9      786
8.92     805
8.94     809
8.96     792
8.98     791
9.0      728
9.02     715
9.04     702
9.06     696
9.08     702
9.1      659
9.12     648
9.14     610
9.16     651
9.18     628
9.2      596
9.22     557
9.24     595
9.26     636
9.28     588
9.3      589
9.32     593
9.34     605
9.36     675
9.38     641
9.4      591
9.42     630
9.44     595
9.46     615
9.48     614
9.5      634
9.52     626
9.54     643
9.56     657
9.58     602
9.6      584
9.62     631
9.64     570
9.66     600
9.68     628
9.7      577
9.72     568
9.74     619
9.76     647
9.78     622
9.8      621
9.82     657
9.84     651
9.86     594
9.88     566
9.9      528
9.92     525
9.94     568
9.96     576
9.98     588
10.0     593
10.02    607
10.04    629
10.06    584
10.08    537
10.1     512
10.12    490
10.14    518
10.16    497
10.18    491
10.2     499
10.22    487
10.24    510
10.26    491
10.28    412
10.3     429
10.32    493
10.34    501
10.36    455
10.38    470
10.4     483
10.42    512
10.44    528
10.46    490
10.48    477
10.5     507
10.52    509
10.54    459
10.56    427
10.58    409
10.6     423
10.62    430
10.64    428
10.66    409
10.68    420
10.7     428
10.72    475
10.74    501
10.76    524
10.78    542
10.8     577
10.82    514
10.84    469
10.86    421
10.88    390
10.9     386
10.92    383
10.94    388
10.96    376
10.98    419
11.0     480
11.02    421
11.04    417
11.06    468
11.08    488
11.1     452
11.12    406
11.14    379
11.16    366
11.18    393
11.2     429
11.22    419
11.24    440
11.26    470
11.28    464
11.3     425
11.32    406
11.34    391
11.36    393
11.38    389
11.4     430
11.42    451
11.44    470
11.46    569
11.48    530
11.5     556
11.52    553
11.54    545
11.56    527
11.58    515
11.6     489
11.62    446
11.64    500
11.66    521
11.68    428
11.7     446
11.72    484
11.74    525
11.76    569
11.78    556
11.8     539
11.82    502
11.84    514
11.86    501
11.88    469
11.9     488
11.92    514
11.94    515
11.96    513
11.98    530
12.0     530
12.02    535
12.04    535
12.06    531
12.08    541
12.1     574
12.12    581
12.14    577
12.16    549
12.18    542
12.2     522
12.22    504
12.24    463
12.26    393
12.28    421
12.3     457
12.32    491
12.34    541
12.36    563
12.38    584
12.4     627
12.42    660
12.44    686
12.46    683
12.48    661
12.5     638
12.52    603
12.54    594
12.56    559
12.58    504
12.6     512
12.62    580
12.64    643
12.66    671
12.68    656
12.7     641
12.72    674
12.74    616
12.76    550
12.78    545
12.8     586
12.82    622
12.84    656
12.86    668
12.88    673
12.9     624
12.92    674
12.94    638
12.96    615
12.98    728
13.0     698
13.02    686
13.04    689
13.06    690
13.08    671
13.1     625
13.12    647
13.14    633
13.16    646
13.18    684
13.2     605
13.22    597
13.24    620
13.26    636
13.28    618
13.3     586
13.32    666
13.34    706
13.36    751
13.38    709
13.4     688
13.42    714
13.44    762
13.46    748
13.48    682
13.5     678
13.52    782
13.54    787
13.56    743
13.58    686
13.6     705
13.62    754
13.64    762
13.66    766
13.68    743
13.7     771
13.72    797
13.74    782
13.76    738
13.78    710
13.8     723
13.82    715
13.84    649
13.86    658
13.88    687
13.9     740
13.92    784
13.94    826
13.96    822
13.98    822
14.0     844
14.02    800
14.04    755
14.06    738
14.08    733
14.1     763
14.12    751
14.14    775
14.16    781
14.18    805
14.2     823
14.22    818
14.24    789
14.26    721
14.28    708
14.3     721
14.32    699
14.34    709
14.36    748
14.38    774
14.4     772
14.42    803
14.44    862
14.46    882
14.48    902
14.5     922
14.52    896
14.54    901
14.56    871
14.58    787
14.6     756
14.62    765
14.64    788
14.66    790
14.68    801
14.7     782
14.72    802
14.74    893
14.76    891
14.78    870
14.8     917
14.82    951
14.84    958
14.86    972
14.88    950
14.9     888
14.92    909
14.94    959
14.96    961
14.98    905
15.0     930
15.02    992
15.04    1003
15.06    938
15.08    905
15.1     880
15.12    835
15.14    813
15.16    808
15.18    765
15.2     770
15.22    788
15.24    761
15.26    778
15.28    835
15.3     821
15.32    800
15.34    820
15.36    895
15.38    876
15.4     825
15.42    824
15.44    783
15.46    759
15.48    724
15.5     736
15.52    785
15.54    757
15.56    757
15.58    729
15.6     772
15.62    806
15.64    763
15.66    720
15.68    794
15.7     930
15.72    951
15.74    876
15.76    836
15.78    844
15.8     856
15.82    842
15.84    845
15.86    895
15.88    1013
15.9     1108
15.92    1079
15.94    1098
15.96    1159
15.98    1230
16.0     1272
16.02    1366
16.04    1419
16.06    1474
16.08    1620
16.1     1690
16.12    1687
16.14    1796
16.16    1944
16.18    2087
16.2     2251
16.22    2455
16.24    2725
16.26    3066
16.28    3563
16.3     4029
16.32    4645
16.34    5476
16.36    6502
16.38    7741
16.4     9195
16.42    11053
16.44    13522
16.46    16747
16.48    21003
16.5     26500
16.52    33294
16.54    40381
16.56    45906
16.58    48315
16.6     46949
16.62    42131
16.64    34737
16.66    26047
16.68    17584
16.7     10895
16.72    6740
16.74    4745
16.76    3816
16.78    3223
16.8     2778
16.82    2429
16.84    2171
16.86    1910
16.88    1681
16.9     1590
16.92    1499
16.94    1420
16.96    1366
16.98    1299
17.0     1322
17.02    1250
17.04    1188
17.06    1148
17.08    1157
17.1     1199
17.12    1109
17.14    1036
17.16    1033
17.18    983
17.2     1020
17.22    921
17.24    912
17.26    947
17.28    951
17.3     920
17.32    889
17.34    917
17.36    909
17.38    874
17.4     849
17.42    794
17.44    769
17.46    749
17.48    736
17.5     690
17.52    642
17.54    668
17.56    688
17.58    709
17.6     682
17.62    690
17.64    757
17.66    819
17.68    828
17.7     739
17.72    677
17.74    703
17.76    757
17.78    783
17.8     759
17.82    748
17.84    787
17.86    759
17.88    684
17.9     584
17.92    553
17.94    565
17.96    626
17.98    625
18.0     647
18.02    677
18.04    652
18.06    697
18.08    701
18.1     712
18.12    719
18.14    708
18.16    661
18.18    590
18.2     618
18.22    649
18.24    603
18.26    678
18.28    669
18.3     721
18.32    726
18.34    727
18.36    703
18.38    640
18.4     614
18.42    590
18.44    566
18.46    530
18.48    497
18.5     492
18.52    531
18.54    580
18.56    612
18.58    575
18.6     576
18.62    599
18.64    654
18.66    612
18.68    667
18.7     640
18.72    671
18.74    642
18.76    639
18.78    610
18.8     653
18.82    685
18.84    701
18.86    662
18.88    693
18.9     660
18.92    606
18.94    536
18.96    562
18.98    622
19.0     645
19.02    642
19.04    653
19.06    637
19.08    628
19.1     645
19.12    615
19.14    593
19.16    608
19.18    641
19.2     580
19.22    531
19.24    549
19.26    630
19.28    635
19.3     663
19.32    618
19.34    622
19.36    613
19.38    621
19.4     530
19.42    406
19.44    441
19.46    519
19.48    476
19.5     451
19.52    456
19.54    542
19.56    594
19.58    650
19.6     557
19.62    486
19.64    499
19.66    555
19.68    532
19.7     526
19.72    528
19.74    600
19.76    635
19.78    648
19.8     595
19.82    630
19.84    568
19.86    572
19.88    519
19.9     486
19.92    509
19.94    545
19.96    547
19.98    553
20.0     583
20.02    603
20.04    499
20.06    473
20.08    462
20.1     490
20.12    518
20.14    505
20.16    491
20.18    529
20.2     582
20.22    608
20.24    592
20.26    596
20.28    558
20.3     545
20.32    523
20.34    501
20.36    422
20.38    463
20.4     496
20.42    554
20.44    589
20.46    584
20.48    557
20.5     593
20.52    657
20.54    624
20.56    589
20.58    630
20.6     628
20.62    661
20.64    683
20.66    656
20.68    638
20.7     625
20.72    622
20.74    518
20.76    510
20.78    525
20.8     542
20.82    621
20.84    692
20.86    630
20.88    594
20.9     527
20.92    515
20.94    459
20.96    458
20.98    449
21.0     513
21.02    572
21.04    590
21.06    462
21.08    416
21.1     395
21.12    507
21.14    515
21.16    478
21.18    399
21.2     435
21.22    500
21.24    539
21.26    541
21.28    540
21.3     618
21.32    684
21.34    614
21.36    511
21.38    437
21.4     433
21.42    477
21.44    505
21.46    585
21.48    588
21.5     614
21.52    589
21.54    551
21.56    510
21.58    507
21.6     475
21.62    522
21.64    576
21.66    585
21.68    522
21.7     455
21.72    468
21.74    459
21.76    446
21.78    400
21.8     386
21.82    384
21.84    398
21.86    360
21.88    369
21.9     399
21.92    535
21.94    581
21.96    569
21.98    546
22.0     602
22.02    572
22.04    552
22.06    492
22.08    519
22.1     515
22.12    531
22.14    486
22.16    415
22.18    393
22.2     432
22.22    425
22.24    415
22.26    411
22.28    498
22.3     510
22.32    555
22.34    570
22.36    552
22.38    542
22.4     531
22.42    520
22.44    476
22.46    509
22.48    541
22.5     542
22.52    535
22.54    500
22.56    471
22.58    441
22.6     431
22.62    439
22.64    498
22.66    541
22.68    532
22.7     526
22.72    468
22.74    448
22.76    411
22.78    367
22.8     362
22.82    407
22.84    478
22.86    508
22.88    540
22.9     554
22.92    504
22.94    518
22.96    486
22.98    495
23.0     467
23.02    472
23.04    464
23.06    475
23.08    453
23.1     401
23.12    306
23.14    273
23.16    292
23.18    364
23.2     421
23.22    515
23.24    558
23.26    534
23.28    502
23.3     518
23.32    494
23.34    481
23.36    439
23.38    399
23.4     381
23.42    409
23.44    378
23.46    307
23.48    316
23.5     393
23.52    430
23.54    471
23.56    403
23.58    387
23.6     383
23.62    420
23.64    419
23.66    423
23.68    482
23.7     492
23.72    501
23.74    447
23.76    411
23.78    410
23.8     451
23.82    458
23.84    474
23.86    495
23.88    518
23.9     539
23.92    586
23.94    573
23.96    545
23.98    457
24.0     400
24.02    392
24.04    376
24.06    390
24.08    354
24.1     396
24.12    411
24.14    448
24.16    407
24.18    395
24.2     338
24.22    390
24.24    354
24.26    445
24.28    422
24.3     489
24.32    471
24.34    552
24.36    530
24.38    519
24.4     416
24.42    435
24.44    427
24.46    523
24.48    511
24.5     514
24.52    444
24.54    462
24.56    470
24.58    481
24.6     462
24.62    464
24.64    502
24.66    493
24.68    447
24.7     346
24.72    296
24.74    340
24.76    396
24.78    453
24.8     446
24.82    430
24.84    474
24.86    422
24.88    415
24.9     387
24.92    378
24.94    394
24.96    367
24.98    360
25.0     359
25.02    365
25.04    406
25.06    418
25.08    445
25.1     466
25.12    413
25.14    381
25.16    370
25.18    373
25.2     421
25.22    416
25.24    383
25.26    376
25.28    370
25.3     386
25.32    373
25.34    344
25.36    358
25.38    352
25.4     418
25.42    432
25.44    385
25.46    339
25.48    344
25.5     385
25.52    399
25.54    340
25.56    285
25.58    245
25.6     296
25.62    314
25.64    319
25.66    363
25.68    392
25.7     452
25.72    451
25.74    459
25.76    409
25.78    304
25.8     279
25.82    256
25.84    273
25.86    313
25.88    316
25.9     351
25.92    354
25.94    374
25.96    375
25.98    330
26.0     392
26.02    380
26.04    430
26.06    445
26.08    460
26.1     448
26.12    465
26.14    483
26.16    438
26.18    372
26.2     341
26.22    298
26.24    332
26.26    340
26.28    354
26.3     353
26.32    383
26.34    377
26.36    300
26.38    298
26.4     308
26.42    343
26.44    410
26.46    472
26.48    457
26.5     433
26.52    412
26.54    372
26.56    374
26.58    392
26.6     323
26.62    324
26.64    306
26.66    278
26.68    204
26.7     257
26.72    282
26.74    297
26.76    379
26.78    439
26.8     423
26.82    501
26.84    431
26.86    388
26.88    369
26.9     360
26.92    338
26.94    285
26.96    344
26.98    389
27.0     378
27.02    447
27.04    423
27.06    458
27.08    448
27.1     389
27.12    346
27.14    321
27.16    317
27.18    325
27.2     319
27.22    359
27.24    406
27.26    399
27.28    347
27.3     273
27.32    194
27.34    243
27.36    210
27.38    296
27.4     312
27.42    357
27.44    419
27.46    372
27.48    333
27.5     325
27.52    341
27.54    412
27.56    372
27.58    437
27.6     414
27.62    446
27.64    381
27.66    305
27.68    290
27.7     285
27.72    303
27.74    305
27.76    315
27.78    411
27.8     417
27.82    485
27.84    467
27.86    481
27.88    429
27.9     314
27.92    276
27.94    232
27.96    257
27.98    280
28.0     257
28.02    284
28.04    310
28.06    342
28.08    310
28.1     314
28.12    372
28.14    437
28.16    495
28.18    497
28.2     451
28.22    380
28.24    368
28.26    336
28.28    374
28.3     385
28.32    426
28.34    436
28.36    431
28.38    384
28.4     312
28.42    282
28.44    283
28.46    271
28.48    353
28.5     357
28.52    412
28.54    393
28.56    382
28.58    366
28.6     322
28.62    364
28.64    340
28.66    331
28.68    299
28.7     274
28.72    271
28.74    251
28.76    301
28.78    351
28.8     350
28.82    435
28.84    468
28.86    440
28.88    397
28.9     294
28.92    198
28.94    199
28.96    250
28.98    318
29.0     374
29.02    423
29.04    435
29.06    388
29.08    388
29.1     304
29.12    317
29.14    411
29.16    444
29.18    453
29.2     394
29.22    321
29.24    272
29.26    232
29.28    282
29.3     253
29.32    306
29.34    343
29.36    335
29.38    310
29.4     300
29.42    328
29.44    316
29.46    278
29.48    265
29.5     220
29.52    245
29.54    274
29.56    317
29.58    340
29.6     321
29.62    263
29.64    219
29.66    160
29.68    137
29.7     227
29.72    324
29.74    424
29.76    503
29.78    514
29.8     421
29.82    315
29.84    301
29.86    206
29.88    172
29.9     201
29.92    265
29.94    339
29.96    385
29.98    406
30.0     352
30.02    347
30.04    380
30.06    318
30.08    313
30.1     304
30.12    335
30.14    362
30.16    396
30.18    418
30.2     367
30.22    401
30.24    405
30.26    385
30.28    364
30.3     316
30.32    305
30.34    307
30.36    313
30.38    291
30.4     281
30.42    299
30.44    310
30.46    358
30.48    375
30.5     410
30.52    458
30.54    406
30.56    364
30.58    351
30.6     309
30.62    256
30.64    253
30.66    256
30.68    300
30.7     364
30.72    399
30.74    398
30.76    378
30.78    349
30.8     279
30.82    255
30.84    267
30.86    292
30.88    323
30.9     350
30.92    364
30.94    309
30.96    262
30.98    205
31.0     209
31.02    211
31.04    228
31.06    331
31.08    325
31.1     327
31.12    285
31.14    212
31.16    265
31.18    291
31.2     379
31.22    395
31.24    368
31.26    375
31.28    284
31.3     240
31.32    228
31.34    270
31.36    375
31.38    411
31.4     442
31.42    440
31.44    365
31.46    291
31.48    219
31.5     204
31.52    262
31.54    333
31.56    409
31.58    382
31.6     388
31.62    429
31.64    426
31.66    408
31.68    353
31.7     322
31.72    331
31.74    317
31.76    290
31.78    307
31.8     339
31.82    394
31.84    391
31.86    370
31.88    287
31.9     201
31.92    187
31.94    200
31.96    251
31.98    373
32.0     383
32.02    380
32.04    374
32.06    322
32.08    249
32.1     204
32.12    247
32.14    353
32.16    427
32.18    446
32.2     420
32.22    413
32.24    413
32.26    400
32.28    372
32.3     413
32.32    484
32.34    504
32.36    464
32.38    410
32.4     376
32.42    365
32.44    284
32.46    291
32.48    266
32.5     303
32.52    398
32.54    464
32.56    443
32.58    476
32.6     485
32.62    444
32.64    401
32.66    395
32.68    347
32.7     368
32.72    423
32.74    503
32.76    526
32.78    584
32.8     606
32.82    547
32.84    536
32.86    485
32.88    442
32.9     433
32.92    376
32.94    443
32.96    447
32.98    397
33.0     430
33.02    431
33.04    476
33.06    569
33.08    585
33.1     594
33.12    572
33.14    602
33.16    598
33.18    537
33.2     586
33.22    579
33.24    601
33.26    668
33.28    717
33.3     816
33.32    909
33.34    966
33.36    1110
33.38    1242
33.4     1553
33.42    1926
33.44    2493
33.46    3319
33.48    4529
33.5     6155
33.52    8082
33.54    9924
33.56    11500
33.58    12247
33.6     12140
33.62    11177
33.64    9517
33.66    7478
33.68    5466
33.7     3792
33.72    2625
33.74    1869
33.76    1405
33.78    1063
33.8     920
33.82    865
33.84    916
33.86    974
33.88    945
33.9     871
33.92    763
33.94    647
33.96    483
33.98    411
34.0     363
34.02    412
34.04    556
34.06    620
34.08    620
34.1     668
34.12    650
34.14    595
34.16    457
34.18    364
34.2     323
34.22    417
34.24    494
34.26    576
34.28    593
34.3     669
34.32    645
34.34    576
34.36    481
34.38    414
34.4     389
34.42    441
34.44    508
34.46    546
34.48    582
34.5     581
34.52    548
34.54    549
34.56    511
34.58    504
34.6     491
34.62    536
34.64    557
34.66    569
34.68    649
34.7     597
34.72    584
34.74    571
34.76    546
34.78    555
34.8     543
34.82    620
34.84    720
34.86    880
34.88    1031
34.9     1202
34.92    1424
34.94    1641
34.96    2058
34.98    2680
35.0     3644
35.02    5244
35.04    7314
35.06    9499
35.08    11134
35.1     11991
35.12    11818
35.14    10676
35.16    8824
35.18    6568
35.2     4393
35.22    2787
35.24    1816
35.26    1307
35.28    967
35.3     880
35.32    828
35.34    881
35.36    924
35.38    935
35.4     855
35.42    778
35.44    701
35.46    620
35.48    558
35.5     572
35.52    537
35.54    603
35.56    649
35.58    638
35.6     568
35.62    553
35.64    451
35.66    369
35.68    357
35.7     400
35.72    427
35.74    539
35.76    624
35.78    679
35.8     667
35.82    634
35.84    517
35.86    543
35.88    552
35.9     582
35.92    554
35.94    652
35.96    657
35.98    697
36.0     660
36.02    662
36.04    658
36.06    717
36.08    687
36.1     745
36.12    766
36.14    923
36.16    1011
36.18    1181
36.2     1270
36.22    1481
36.24    1708
36.26    2034
36.28    2490
36.3     3229
36.32    4213
36.34    5707
36.36    7946
36.38    11262
36.4     15409
36.42    19930
36.44    23726
36.46    25787
36.48    25830
36.5     23832
36.52    20035
36.54    15334
36.56    10704
36.58    7035
36.6     4509
36.62    3156
36.64    2421
36.66    1909
36.68    1585
36.7     1385
36.72    1154
36.74    1034
36.76    1036
36.78    994
36.8     931
36.82    932
36.84    862
36.86    810
36.88    676
36.9     630
36.92    513
36.94    498
36.96    614
36.98    643
37.0     663
37.02    690
37.04    699
37.06    630
37.08    550
37.1     541
37.12    479
37.14    407
37.16    403
37.18    437
37.2     390
37.22    470
37.24    607
37.26    705
37.28    850
37.3     988
37.32    1011
37.34    972
37.36    930
37.38    905
37.4     729
37.42    659
37.44    579
37.46    521
37.48    429
37.5     366
37.52    342
37.54    332
37.56    353
37.58    393
37.6     354
37.62    376
37.64    358
37.66    409
37.68    385
37.7     455
37.72    586
37.74    634
37.76    692
37.78    670
37.8     634
37.82    551
37.84    428
37.86    422
37.88    423
37.9     494
37.92    613
37.94    616
37.96    618
37.98    573
38.0     536
38.02    372
38.04    256
38.06    242
38.08    296
38.1     362
38.12    483
38.14    519
38.16    534
38.18    493
38.2     435
38.22    368
38.24    330
38.26    316
38.28    360
38.3     394
38.32    420
38.34    374
38.36    313
38.38    260
38.4     243
38.42    316
38.44    328
38.46    433
38.48    482
38.5     514
38.52    503
38.54    470
38.56    379
38.58    393
38.6     386
38.62    451
38.64    440
38.66    486
38.68    449
38.7     459
38.72    415
38.74    381
38.76    346
38.78    413
38.8     405
38.82    444
38.84    472
38.86    490
38.88    430
38.9     400
38.92    366
38.94    348
38.96    395
38.98    408
39.0     417
39.02    430
39.04    449
39.06    441
39.08    388
39.1     368
39.12    347
39.14    358
39.16    358
39.18    350
39.2     388
39.22    376
39.24    342
39.26    337
39.28    337
39.3     350
39.32    331
39.34    400
39.36    377
39.38    395
39.4     373
39.42    391
39.44    325
39.46    322
39.48    325
39.5     358
39.52    347
39.54    405
39.56    458
39.58    496
39.6     495
39.62    550
39.64    559
39.66    599
39.68    531
39.7     464
39.72    435
39.74    418
39.76    401
39.78    359
39.8     301
39.82    292
39.84    376
39.86    401
39.88    347
39.9     410
39.92    520
39.94    548
39.96    526
39.98    553
40.0     522
40.02    541
40.04    577
40.06    653
40.08    694
40.1     824
40.12    837
40.14    838
40.16    795
40.18    832
40.2     768
40.22    711
40.24    663
40.26    718
40.28    631
40.3     622
40.32    568
40.34    640
40.36    651
40.38    748
40.4     772
40.42    835
40.44    839
40.46    847
40.48    776
40.5     804
40.52    763
40.54    763
40.56    718
40.58    710
40.6     781
40.62    819
40.64    845
40.66    889
40.68    934
40.7     952
40.72    902
40.74    928
40.76    910
40.78    903
40.8     954
40.82    923
40.84    955
40.86    939
40.88    933
40.9     968
40.92    1035
40.94    1158
40.96    1225
40.98    1308
41.0     1317
41.02    1363
41.04    1402
41.06    1440
41.08    1505
41.1     1625
41.12    1753
41.14    1934
41.16    2169
41.18    2388
41.2     2641
41.22    3030
41.24    3491
41.26    4089
41.28    4839
41.3     5767
41.32    6911
41.34    8401
41.36    10488
41.38    13276
41.4     17372
41.42    23307
41.44    32010
41.46    43868
41.48    58074
41.5     72014
41.52    82640
41.54    87601
41.56    85928
41.58    77989
41.6     65423
41.62    50486
41.64    36270
41.66    25134
41.68    17613
41.7     12816
41.72    9734
41.74    7591
41.76    6080
41.78    5069
41.8     4436
41.82    3954
41.84    3636
41.86    3401
41.88    3094
41.9     2721
41.92    2482
41.94    2171
41.96    1916
41.98    1634
42.0     1582
42.02    1535
42.04    1491
42.06    1483
42.08    1439
42.1     1347
42.12    1215
42.14    1089
42.16    1047
42.18    1011
42.2     1020
42.22    1038
42.24    1072
42.26    1137
42.28    1130
42.3     1065
42.32    907
42.34    884
42.36    777
42.38    696
42.4     626
42.42    689
42.44    763
42.46    831
42.48    930
42.5     919
42.52    902
42.54    811
42.56    667
42.58    567
42.6     557
42.62    528
42.64    554
42.66    592
42.68    633
42.7     635
42.72    696
42.74    702
42.76    735
42.78    732
42.8     737
42.82    694
42.84    728
42.86    701
42.88    648
42.9     627
42.92    622
42.94    620
42.96    591
42.98    599
43.0     645
43.02    685
43.04    788
43.06    814
43.08    819
43.1     794
43.12    760
43.14    697
43.16    594
43.18    545
43.2     492
43.22    465
43.24    519
43.26    570
43.28    578
43.3     604
43.32    634
43.34    593
43.36    523
43.38    466
43.4     448
43.42    460
43.44    478
43.46    525
43.48    528
43.5     521
43.52    522
43.54    505
43.56    498
43.58    494
43.6     550
43.62    522
43.64    550
43.66    572
43.68    570
43.7     541
43.72    499
43.74    514
43.76    497
43.78    501
43.8     515
43.82    489
43.84    528
43.86    533
43.88    553
43.9     551
43.92    542
43.94    577
43.96    538
43.98    512
44.0     453
44.02    369
44.04    257
44.06    237
44.08    311
44.1     427
44.12    530
44.14    656
44.16    734
44.18    774
44.2     714
44.22    587
44.24    482
44.26    452
44.28    409
44.3     358
44.32    339
44.34    304
44.36    297
44.38    339
44.4     388
44.42    488
44.44    587
44.46    664
44.48    678
44.5     648
44.52    568
44.54    409
44.56    373
44.58    392
44.6     409
44.62    488
44.64    554
44.66    635
44.68    619
44.7     592
44.72    545
44.74    502
44.76    446
44.78    435
44.8     449
44.82    552
44.84    613
44.86    642
44.88    724
44.9     810
44.92    969
44.94    1088
44.96    1290
44.98    1535
45.0     1768
45.02    1944
45.04    1882
45.06    1769
45.08    1626
45.1     1363
45.12    1149
45.14    911
45.16    877
45.18    841
45.2     806
45.22    759
45.24    650
45.26    606
45.28    535
45.3     441
45.32    431
45.34    389
45.36    472
45.38    494
45.4     460
45.42    452
45.44    460
45.46    498
45.48    502
45.5     487
45.52    581
45.54    586
45.56    620
45.58    524
45.6     401
45.62    318
45.64    293
45.66    317
45.68    285
45.7     310
45.72    387
45.74    449
45.76    533
45.78    506
45.8     513
45.82    512
45.84    513
45.86    476
45.88    415
45.9     375
45.92    389
45.94    418
45.96    398
45.98    415
46.0     373
46.02    331
46.04    339
46.06    340
46.08    371
46.1     355
46.12    428
46.14    478
46.16    437
46.18    447
46.2     402
46.22    449
46.24    511
46.26    493
46.28    504
46.3     460
46.32    457
46.34    373
46.36    293
46.38    306
46.4     347
46.42    425
46.44    474
46.46    507
46.48    518
46.5     476
46.52    397
46.54    306
46.56    344
46.58    374
46.6     405
46.62    474
46.64    532
46.66    542
46.68    474
46.7     409
46.72    375
46.74    348
46.76    311
46.78    273
46.8     337
46.82    372
46.84    379
46.86    397
46.88    460
46.9     516
46.92    539
46.94    519
46.96    445
46.98    411
47.0     333
47.02    243
47.04    161
47.06    152
47.08    241
47.1     317
47.12    386
47.14    515
47.16    557
47.18    555
47.2     537
47.22    517
47.24    444
47.26    426
47.28    430
47.3     454
47.32    438
47.34    470
47.36    496
47.38    504
47.4     529
47.42    483
47.44    456
47.46    476
47.48    466
47.5     471
47.52    424
47.54    481
47.56    545
47.58    548
47.6     532
47.62    510
47.64    530
47.66    523
47.68    520
47.7     483
47.72    477
47.74    444
47.76    376
47.78    332
47.8     297
47.82    268
47.84    281
47.86    275
47.88    354
47.9     405
47.92    490
47.94    479
47.96    508
47.98    556
48.0     541
48.02    498
48.04    442
48.06    429
48.08    447
48.1     461
48.12    506
48.14    499
48.16    546
48.18    569
48.2     526
48.22    468
48.24    413
48.26    395
48.28    329
48.3     325
48.32    333
48.34    369
48.36    364
48.38    377
48.4     422
48.42    463
48.44    517
48.46    482
48.48    462
48.5     478
48.52    410
48.54    359
48.56    310
48.58    343
48.6     418
48.62    454
48.64    511
48.66    527
48.68    548
48.7     514
48.72    410
48.74    367
48.76    398
48.78    361
48.8     382
48.82    420
48.84    467
48.86    471
48.88    426
48.9     407
48.92    389
48.94    384
48.96    426
48.98    386
49.0     484
49.02    557
49.04    565
49.06    551
49.08    529
49.1     501
49.12    421
49.14    342
49.16    285
49.18    205
49.2     248
49.22    216
49.24    254
49.26    354
49.28    432
49.3     515
49.32    571
49.34    581
49.36    560
49.38    512
49.4     424
49.42    339
49.44    314
49.46    307
49.48    290
49.5     282
49.52    360
49.54    410
49.56    489
49.58    474
49.6     429
49.62    424
49.64    397
49.66    368
49.68    297
49.7     246
49.72    307
49.74    316
49.76    358
49.78    334
49.8     366
49.82    355
49.84    426
49.86    435
49.88    437
49.9     447
49.92    464
49.94    445
49.96    439
49.98    408
50.0     363
50.02    303
50.04    315
50.06    292
50.08    294
50.1     300
50.12    343
50.14    388
50.16    437
50.18    460
50.2     471
50.22    521
50.24    492
50.26    464
50.28    427
50.3     368
50.32    293
50.34    290
50.36    293
50.38    325
50.4     341
50.42    360
50.44    342
50.46    336
50.48    301
50.5     282
50.52    236
50.54    300
50.56    358
50.58    435
50.6     469
50.62    533
50.64    606
50.66    607
50.68    531
50.7     492
50.72    444
50.74    407
50.76    354
50.78    308
50.8     273
50.82    329
50.84    394
50.86    408
50.88    436
50.9     505
50.92    582
50.94    584
50.96    570
50.98    551
51.0     536
51.02    515
51.04    430
51.06    340
51.08    278
51.1     277
51.12    256
51.14    255
51.16    316
51.18    398
51.2     454
51.22    462
51.24    448
51.26    465
51.28    424
51.3     420
51.32    390
51.34    350
51.36    341
51.38    365
51.4     341
51.42    387
51.44    423
51.46    464
51.48    553
51.5     639
51.52    619
51.54    555
51.56    474
51.58    442
51.6     365
51.62    308
51.64    223
51.66    209
51.68    309
51.7     385
51.72    406
51.74    466
51.76    540
51.78    581
51.8     567
51.82    537
51.84    538
51.86    564
51.88    545
51.9     534
51.92    552
51.94    507
51.96    494
51.98    387
52.0     283
52.02    243
52.04    239
52.06    232
52.08    234
52.1     291
52.12    422
52.14    478
52.16    591
52.18    654
52.2     721
52.22    724
52.24    665
52.26    549
52.28    511
52.3     437
52.32    385
52.34    336
52.36    351
52.38    381
52.4     447
52.42    418
52.44    434
52.46    433
52.48    499
52.5     495
52.52    507
52.54    557
52.56    538
52.58    546
52.6     522
52.62    488
52.64    495
52.66    436
52.68    400
52.7     370
52.72    388
52.74    424
52.76    438
52.78    447
52.8     490
52.82    592
52.84    654
52.86    636
52.88    623
52.9     605
52.92    593
52.94    565
52.96    496
52.98    404
53.0     462
53.02    442
53.04    499
53.06    510
53.08    617
53.1     751
53.12    826
53.14    881
53.16    906
53.18    935
53.2     967
53.22    900
53.24    1015
53.26    1114
53.28    1369
53.3     1644
53.32    2018
53.34    2546
53.36    3263
53.38    4092
53.4     5024
53.42    5958
53.44    6797
53.46    7358
53.48    7481
53.5     7119
53.52    6430
53.54    5515
53.56    4546
53.58    3630
53.6     2882
53.62    2330
53.64    1918
53.66    1741
53.68    1529
53.7     1307
53.72    1127
53.74    979
53.76    815
53.78    737
53.8     631
53.82    595
53.84    556
53.86    643
53.88    617
53.9     626
53.92    596
53.94    584
53.96    561
53.98    612
54.0     565
54.02    608
54.04    562
54.06    593
54.08    494
54.1     428
54.12    346
54.14    325
54.16    308
54.18    270
54.2     273
54.22    341
54.24    430
54.26    535
54.28    547
54.3     593
54.32    686
54.34    730
54.36    742
54.38    645
54.4     528
54.42    402
54.44    291
54.46    182
54.48    137
54.5     145
54.52    237
54.54    345
54.56    497
54.58    607
54.6     652
54.62    697
54.64    666
54.66    649
54.68    526
54.7     403
54.72    267
54.74    197
54.76    154
54.78    225
54.8     359
54.82    430
54.84    506
54.86    544
54.88    494
54.9     498
54.92    443
54.94    417
54.96    357
54.98    356
55.0     394
55.02    373
55.04    446
55.06    410
55.08    382
55.1     412
55.12    483
55.14    471
55.16    488
55.18    407
55.2     391
55.22    394
55.24    448
55.26    355
55.28    264
55.3     297
55.32    387
55.34    366
55.36    406
55.38    364
55.4     399
55.42    471
55.44    546
55.46    530
55.48    499
55.5     504
55.52    561
55.54    510
55.56    495
55.58    445
55.6     451
55.62    439
55.64    452
55.66    446
55.68    418
55.7     414
55.72    475
55.74    449
55.76    423
55.78    430
55.8     447
55.82    465
55.84    470
55.86    427
55.88    452
55.9     461
55.92    466
55.94    400
55.96    369
55.98    375
56.0     375
56.02    390
56.04    353
56.06    371
56.08    396
56.1     432
56.12    457
56.14    449
56.16    496
56.18    480
56.2     496
56.22    413
56.24    374
56.26    397
56.28    413
56.3     469
56.32    468
56.34    548
56.36    596
56.38    643
56.4     660
56.42    562
56.44    582
56.46    551
56.48    547
56.5     495
56.52    461
56.54    454
56.56    463
56.58    448
56.6     431
56.62    410
56.64    473
56.66    440
56.68    457
56.7     482
56.72    489
56.74    515
56.76    533
56.78    444
56.8     446
56.82    435
56.84    493
56.86    473
56.88    484
56.9     495
56.92    529
56.94    573
56.96    539
56.98    485
57.0     469
57.02    432
57.04    441
57.06    412
57.08    417
57.1     416
57.12    450
57.14    531
57.16    587
57.18    604
57.2     594
57.22    543
57.24    522
57.26    523
57.28    488
57.3     426
57.32    399
57.34    524
57.36    551
57.38    626
57.4     662
57.42    671
57.44    750
57.46    783
57.48    772
57.5     743
57.52    723
57.54    737
57.56    663
57.58    671
57.6     600
57.62    536
57.64    537
57.66    522
57.68    542
57.7     642
57.72    714
57.74    723
57.76    763
57.78    831
57.8     869
57.82    884
57.84    979
57.86    1049
57.88    1191
57.9     1336
57.92    1380
57.94    1438
57.96    1503
57.98    1615
58.0     1751
58.02    1857
58.04    2042
58.06    2288
58.08    2707
58.1     3164
58.12    3800
58.14    4697
58.16    5827
58.18    7320
58.2     9098
58.22    11178
58.24    13327
58.26    15331
58.28    16712
58.3     17215
58.32    16728
58.34    15442
58.36    13592
58.38    11292
58.4     9109
58.42    7247
58.44    5729
58.46    4619
58.48    3780
58.5     3105
58.52    2500
58.54    2197
58.56    1931
58.58    1616
58.6     1501
58.62    1421
58.64    1301
58.66    1271
58.68    1350
58.7     1251
58.72    1201
58.74    1158
58.76    1005
58.78    802
58.8     716
58.82    651
58.84    529
58.86    580
58.88    603
58.9     621
58.92    723
58.94    806
58.96    858
58.98    854
59.0     813
59.02    740
59.04    660
59.06    624
59.08    474
59.1     384
59.12    390
59.14    423
59.16    438
59.18    456
59.2     412
59.22    459
59.24    493
59.26    561
59.28    535
59.3     536
59.32    609
59.34    603
59.36    617
59.38    555
59.4     485
59.42    437
59.44    423
59.46    442
59.48    389
59.5     406
59.52    398
59.54    431
59.56    485
59.58    447
59.6     472
59.62    439
59.64    454
59.66    436
59.68    435
59.7     506
59.72    476
59.74    490
59.76    518
59.78    563
59.8     515
59.82    479
59.84    483
59.86    470
59.88    484
59.9     555
59.92    492
59.94    482
59.96    549
59.98    567
60.0     486
60.02    520
60.04    516
60.06    453
60.08    435
60.1     497
60.12    404
60.14    408
60.16    471
60.18    488
60.2     483
60.22    510
60.24    544
60.26    519
60.28    600
60.3     640
60.32    502
60.34    410
60.36    392
60.38    313
60.4     250
60.42    260
60.44    337
60.46    369
60.48    500
60.5     555
60.52    517
60.54    494
60.56    493
60.58    431
60.6     400
60.62    411
60.64    427
60.66    415
60.68    483
60.7     549
60.72    542
60.74    499
60.76    468
60.78    439
60.8     426
60.82    428
60.84    413
60.86    358
60.88    371
60.9     397
60.92    375
60.94    359
60.96    388
60.98    386
61.0     428
61.02    478
61.04    500
61.06    434
61.08    461
61.1     493
61.12    515
61.14    533
61.16    559
61.18    500
61.2     480
61.22    472
61.24    424
61.26    348
61.28    328
61.3     352
61.32    361
61.34    443
61.36    550
61.38    619
61.4     634
61.42    702
61.44    665
61.46    627
61.48    631
61.5     619
61.52    519
61.54    567
61.56    578
61.58    578
61.6     546
61.62    629
61.64    702
61.66    793
61.68    899
61.7     946
61.72    974
61.74    1038
61.76    1065
61.78    1087
61.8     1117
61.82    1181
61.84    1399
61.86    1559
61.88    1853
61.9     2222
61.92    2677
61.94    3281
61.96    4107
61.98    5256
62.0     6823
62.02    8834
62.04    11422
62.06    14222
62.08    16800
62.1     18602
62.12    19334
62.14    18767
62.16    17074
62.18    14615
62.2     11872
62.22    9132
62.24    6979
62.26    5389
62.28    4151
62.3     3332
62.32    2711
62.34    2223
62.36    1878
62.38    1590
62.4     1466
62.42    1208
62.44    1177
62.46    1014
62.48    878
62.5     823
62.52    764
62.54    747
62.56    727
62.58    739
62.6     764
62.62    692
62.64    739
62.66    698
62.68    684
62.7     680
62.72    684
62.74    685
62.76    673
62.78    684
62.8     685
62.82    667
62.84    585
62.86    529
62.88    486
62.9     472
62.92    486
62.94    497
62.96    447
62.98    452
63.0     458
63.02    506
63.04    488
63.06    454
63.08    424
63.1     380
63.12    351
63.14    302
63.16    280
63.18    287
63.2     293
63.22    337
63.24    428
63.26    463
63.28    498
63.3     531
63.32    576
63.34    566
63.36    574
63.38    553
63.4     550
63.42    483
63.44    492
63.46    434
63.48    424
63.5     478
63.52    493
63.54    435
63.56    452
63.58    459
63.6     502
63.62    470
63.64    462
63.66    449
63.68    484
63.7     574
63.72    557
63.74    573
63.76    594
63.78    522
63.8     508
63.82    461
63.84    450
63.86    413
63.88    381
63.9     379
63.92    319
63.94    337
63.96    342
63.98    340
64.0     379
64.02    402
64.04    490
64.06    522
64.08    556
64.1     579
64.12    519
64.14    483
64.16    425
64.18    389
64.2     351
64.22    283
64.24    307
64.26    345
64.28    362
64.3     420
64.32    409
64.34    406
64.36    430
64.38    466
64.4     520
64.42    556
64.44    635
64.46    734
64.48    739
64.5     774
64.52    857
64.54    908
64.56    966
64.58    1020
64.6     1139
64.62    1269
64.64    1427
64.66    1726
64.68    2125
64.7     2581
64.72    3257
64.74    3881
64.76    4461
64.78    4864
64.8     5022
64.82    4932
64.84    4511
64.86    3943
64.88    3396
64.9     2678
64.92    2179
64.94    1715
64.96    1397
64.98    1148
65.0     916
65.02    885
65.04    727
65.06    668
65.08    726
65.1     678
65.12    723
65.14    719
65.16    729
65.18    685
65.2     548
65.22    548
65.24    425
65.26    376
65.28    369
65.3     375
65.32    395
65.34    396
65.36    460
65.38    496
65.4     483
65.42    500
65.44    505
65.46    470
65.48    456
65.5     424
65.52    368
65.54    310
65.56    345
65.58    345
65.6     356
65.62    365
65.64    405
65.66    423
65.68    470
65.7     461
65.72    451
65.74    431
65.76    425
65.78    431
65.8     401
65.82    389
65.84    393
65.86    445
65.88    506
65.9     488
65.92    498
65.94    467
65.96    454
65.98    469
66.0     462
66.02    458
66.04    443
66.06    450
66.08    415
66.1     357
66.12    370
66.14    330
66.16    338
66.18    295
66.2     326
66.22    309
66.24    369
66.26    435
66.28    461
66.3     504
66.32    542
66.34    505
66.36    504
66.38    380
66.4     326
66.42    262
66.44    272
66.46    267
66.48    295
66.5     323
66.52    379
66.54    427
66.56    499
66.58    467
66.6     429
66.62    391
66.64    396
66.66    382
66.68    386
66.7     378
66.72    372
66.74    340
66.76    338
66.78    309
66.8     341
66.82    353
66.84    399
66.86    374
66.88    372
66.9     381
66.92    369
66.94    351
66.96    357
66.98    295
67.0     307
67.02    237
67.04    246
67.06    253
67.08    274
67.1     294
67.12    324
67.14    355
67.16    387
67.18    432
67.2     503
67.22    471
67.24    524
67.26    539
67.28    538
67.3     462
67.32    468
67.34    423
67.36    389
67.38    432
67.4     413
67.42    372
67.44    358
67.46    359
67.48    343
67.5     336
67.52    412
67.54    395
67.56    393
67.58    426
67.6     422
67.62    485
67.64    507
67.66    585
67.68    578
67.7     585
67.72    589
67.74    540
67.76    520
67.78    447
67.8     342
67.82    296
67.84    237
67.86    223
67.88    204
67.9     244
67.92    325
67.94    371
67.96    457
67.98    498
68.0     484
68.02    497
68.04    512
68.06    468
68.08    502
68.1     542
68.12    509
68.14    465
68.16    470
68.18    477
68.2     451
68.22    453
68.24    437
68.26    359
68.28    303
68.3     280
68.32    275
68.34    284
68.36    325
68.38    373
68.4     414
68.42    435
68.44    440
68.46    441
68.48    444
68.5     527
68.52    577
68.54    623
68.56    605
68.58    583
68.6     583
68.62    577
68.64    585
68.66    597
68.68    669
68.7     721
68.72    734
68.74    784
68.76    861
68.78    928
68.8     1107
68.82    1256
68.84    1482
68.86    1697
68.88    1997
68.9     2366
68.92    2784
68.94    3256
68.96    3732
68.98    4077
69.0     4325
69.02    4361
69.04    4172
69.06    3781
69.08    3340
69.1     2879
69.12    2427
69.14    2046
69.16    1775
69.18    1625
69.2     1487
69.22    1356
69.24    1189
69.26    1070
69.28    918
69.3     748
69.32    646
69.34    598
69.36    556
69.38    512
69.4     448
69.42    395
69.44    404
69.46    392
69.48    371
69.5     383
69.52    411
69.54    450
69.56    415
69.58    402
69.6     416
69.62    429
69.64    445
69.66    416
69.68    425
69.7     378
69.72    327
69.74    362
69.76    312
69.78    344
69.8     392
69.82    446
69.84    406
69.86    402
69.88    405
69.9     396
69.92    376
69.94    379
69.96    371
69.98    402
70.0     382
70.02    360
70.04    362
70.06    385
70.08    408
70.1     470
70.12    479
70.14    566
70.16    654
70.18    641
70.2     662
70.22    694
70.24    708
70.26    648
70.28    586
70.3     535
70.32    558
70.34    524
70.36    520
70.38    527
70.4     539
70.42    581
70.44    584
70.46    660
70.48    742
70.5     912
70.52    1083
70.54    1275
70.56    1598
70.58    1855
70.6     2115
70.62    2341
70.64    2492
70.66    2499
70.68    2377
70.7     2134
70.72    1808
70.74    1591
70.76    1350
70.78    1147
70.8     992
70.82    882
70.84    788
70.86    660
70.88    594
70.9     538
70.92    514
70.94    475
70.96    441
70.98    454
71.0     438
71.02    421
71.04    339
71.06    330
71.08    367
71.1     414
71.12    432
71.14    498
71.16    562
71.18    614
71.2     610
71.22    608
71.24    576
71.26    534
71.28    490
71.3     390
71.32    336
71.34    337
71.36    252
71.38    200
71.4     191
71.42    256
71.44    313
71.46    384
71.48    451
71.5     511
71.52    614
71.54    649
71.56    633
71.58    631
71.6     602
71.62    576
71.64    513
71.66    420
71.68    357
71.7     339
71.72    298
71.74    270
71.76    246
71.78    262
71.8     296
71.82    351
71.84    432
71.86    468
71.88    565
71.9     565
71.92    546
71.94    557
71.96    521
71.98    499
72.0     495
72.02    480
72.04    537
72.06    510
72.08    513
72.1     466
72.12    465
72.14    504
72.16    548
72.18    666
72.2     777
72.22    874
72.24    1096
72.26    1200
72.28    1332
72.3     1448
72.32    1581
72.34    1714
72.36    1955
72.38    2250
72.4     2654
72.42    3186
72.44    3842
72.46    4448
72.48    5037
72.5     5343
72.52    5525
72.54    5441
72.56    5115
72.58    4586
72.6     3994
72.62    3412
72.64    2847
72.66    2416
72.68    2059
72.7     1742
72.72    1586
72.74    1440
72.76    1315
72.78    1204
72.8     1063
72.82    943
72.84    810
72.86    733
72.88    662
72.9     623
72.92    550
72.94    558
72.96    529
72.98    451
73.0     408
73.02    392
73.04    384
73.06    420
73.08    418
73.1     515
73.12    591
73.14    619
73.16    573
73.18    527
73.2     544
73.22    609
73.24    628
73.26    668
73.28    777
73.3     911
73.32    951
73.34    964
73.36    986
73.38    1004
73.4     1090
73.42    1113
73.44    1084
73.46    1065
73.48    1044
73.5     907
73.52    762
73.54    687
73.56    614
73.58    597
73.6     596
73.62    594
73.64    660
73.66    693
73.68    655
73.7     597
73.72    602
73.74    572
73.76    546
73.78    522
73.8     498
73.82    517
73.84    536
73.86    516
73.88    513
73.9     517
73.92    585
73.94    463
73.96    478
73.98    472
74.0     507
74.02    553
74.04    644
74.06    779
74.08    1022
74.1     1233
74.12    1454
74.14    1581
74.16    1910
74.18    2181
74.2     2436
74.22    2603
74.24    2705
74.26    2681
74.28    2610
74.3     2302
74.32    1985
74.34    1631
74.36    1357
74.38    1074
74.4     881
74.42    761
74.44    731
74.46    728
74.48    742
74.5     698
74.52    738
74.54    726
74.56    773
74.58    774
74.6     815
74.62    811
74.64    837
74.66    888
74.68    870
74.7     868
74.72    929
74.74    1046
74.76    1202
74.78    1365
74.8     1586
74.82    1738
74.84    2026
74.86    2238
74.88    2313
74.9     2363
74.92    2332
74.94    2191
74.96    1954
74.98    1743
75.0     1548
75.02    1337
75.04    1252
75.06    1025
75.08    898
75.1     828
75.12    757
75.14    722
75.16    704
75.18    689
75.2     681
75.22    624
75.24    596
75.26    485
75.28    484
75.3     478
75.32    501
75.34    544
75.36    545
75.38    550
75.4     476
75.42    443
75.44    438
75.46    378
75.48    370
75.5     404
75.52    433
75.54    469
75.56    454
75.58    450
75.6     405
75.62    418
75.64    368
75.66    375
75.68    377
75.7     394
75.72    337
75.74    292
75.76    239
75.78    288
75.8     252
75.82    310
75.84    372
75.86    450
75.88    387
75.9     394
75.92    348
75.94    340
75.96    356
75.98    383
76.0     343
76.02    496
76.04    537
76.06    463
76.08    411
76.1     469
76.12    431
76.14    374
76.16    342
76.18    306
76.2     330
76.22    392
76.24    346
76.26    286
76.28    383
76.3     416
76.32    332
76.34    326
76.36    365
76.38    384
76.4     410
76.42    397
76.44    385
76.46    385
76.48    457
76.5     387
76.52    353
76.54    405
76.56    390
76.58    379
76.6     364
76.62    358
76.64    397
76.66    381
76.68    388
76.7     341
76.72    308
76.74    278
76.76    239
76.78    204
76.8     192
76.82    197
76.84    235
76.86    250
76.88    340
76.9     408
76.92    453
76.94    576
76.96    638
76.98    650
77.0     700
77.02    672
77.04    629
77.06    630
77.08    691
77.1     656
77.12    692
77.14    761
77.16    713
77.18    724
77.2     800
77.22    824
77.24    879
77.26    953
77.28    1020
77.3     1049
77.32    1258
77.34    1451
77.36    1638
77.38    2026
77.4     2483
77.42    3024
77.44    3675
77.46    4288
77.48    5010
77.5     5607
77.52    6119
77.54    6356
77.56    6293
77.58    6017
77.6     5437
77.62    4755
77.64    4038
77.66    3318
77.68    2800
77.7     2300
77.72    1964
77.74    1638
77.76    1364
77.78    1161
77.8     1027
77.82    930
77.84    868
77.86    815
77.88    771
77.9     732
77.92    734
77.94    609
77.96    564
77.98    559
78.0     590
78.02    592
78.04    667
78.06    670
78.08    669
78.1     634
78.12    656
78.14    531
78.16    502
78.18    464
78.2     388
78.22    314
78.24    301
78.26    266
78.28    261
78.3     226
78.32    287
78.34    289
78.36    351
78.38    384
78.4     333
78.42    308
78.44    338
78.46    354
78.48    376
78.5     414
78.52    403
78.54    400
78.56    386
78.58    330
78.6     263
78.62    311
78.64    334
78.66    327
78.68    363
78.7     347
78.72    298
78.74    320
78.76    361
78.78    372
78.8     384
78.82    441
78.84    392
78.86    355
78.88    284
78.9     156
78.92    131
78.94    216
78.96    266
78.98    200
79.0     188
79.02    208
79.04    275
79.06    331
79.08    329
79.1     295
79.12    424
79.14    523
79.16    463
79.18    335
79.2     372
79.22    410
79.24    513
79.26    509
79.28    431
79.3     353
79.32    394
79.34    370
79.36    248
79.38    164
79.4     191
79.42    189
79.44    212
79.46    187
79.48    108
79.5     102
79.52    167
79.54    262
79.56    218
79.58    298
79.6     374
79.62    368
79.64    393
79.66    451
79.68    434
79.7     429
79.72    405
79.74    383
79.76    309
79.78    358
79.8     368
79.82    350
79.84    395
79.86    500
79.88    528
79.9     469
79.92    422
79.94    378
79.96    413
79.98    466
80.0     547
80.02    556
80.04    567
80.06    529
80.08    452
80.1     308
80.12    328
80.14    380
80.16    462
80.18    570
80.2     606
80.22    578
80.24    519
80.26    423
80.28    340
80.3     316
80.32    367
80.34    352
80.36    328
80.38    318
80.4     247
80.42    232
80.44    203
80.46    185
80.48    166
80.5     249
80.52    287
80.54    260
80.56    268
80.58    325
80.6     365
80.62    393
80.64    361
80.66    368
80.68    379
80.7     458
80.72    467
80.74    384
80.76    380
80.78    358
80.8     305
80.82    231
80.84    185
80.86    232
80.88    274
80.9     318
80.92    318
80.94    306
80.96    322
80.98    243
81.0     199
81.02    154
81.04    130
81.06    128
81.08    107
81.1     96
81.12    134
81.14    254
81.16    289
81.18    293
81.2     312
81.22    377
81.24    414
81.26    433
81.28    452
81.3     483
81.32    537
81.34    561
81.36    499
81.38    421
81.4     360
81.42    349
81.44    339
81.46    295
81.48    277
81.5     290
81.52    296
81.54    270
81.56    271
81.58    238
81.6     257
81.62    289
81.64    340
81.66    301
81.68    328
81.7     345
81.72    350
81.74    336
81.76    266
81.78    250
81.8     278
81.82    267
81.84    284
81.86    238
81.88    301
81.9     298
81.92    310
81.94    319
81.96    300
81.98    360
82.0     427
82.02    451
82.04    434
82.06    400
82.08    340
82.1     247
82.12    198
82.14    191
82.16    168
82.18    160
82.2     178
82.22    196
82.24    222
82.26    243
82.28    221
82.3     252
82.32    244
82.34    238
82.36    184
82.38    157
82.4     107
82.42    159
82.44    250
82.46    334
82.48    379
82.5     404
82.52    355
82.54    324
82.56    229
82.58    177
82.6     119
82.62    158
82.64    237
82.66    315
82.68    289
82.7     244
82.72    200
82.74    178
82.76    161
82.78    167
82.8     185
82.82    252
82.84    309
82.86    304
82.88    271
82.9     205
82.92    203
82.94    229
82.96    292
82.98    316
83.0     299
83.02    275
83.04    247
83.06    254
83.08    244
83.1     241
83.12    324
83.14    335
83.16    357
83.18    304
83.2     207
83.22    130
83.24    120
83.26    150
83.28    154
83.3     184
83.32    229
83.34    258
83.36    243
83.38    215
83.4     170
83.42    175
83.44    237
83.46    326
83.48    375
83.5     388
83.52    434
83.54    492
83.56    417
83.58    314
83.6     211
83.62    153
83.64    143
83.66    167
83.68    219
83.7     216
83.72    275
83.74    322
83.76    283
83.78    248
83.8     178
83.82    180
83.84    245
83.86    332
83.88    406
83.9     409
83.92    408
83.94    358
83.96    284
83.98    240
84.0     136
84.02    169
84.04    219
84.06    270
84.08    260
84.1     258
84.12    238
84.14    175
84.16    179
84.18    235
84.2     271
84.22    348
84.24    404
84.26    469
84.28    423
84.3     345
84.32    353
84.34    307
84.36    316
84.38    312
84.4     280
84.42    232
84.44    221
84.46    235
84.48    202
84.5     174
84.52    193
84.54    210
84.56    233
84.58    290
84.6     296
84.62    283
84.64    311
84.66    359
84.68    440
84.7     450
84.72    452
84.74    515
84.76    566
84.78    600
84.8     561
84.82    534
84.84    445
84.86    440
84.88    412
84.9     405
84.92    438
84.94    463
84.96    475
84.98    445
85.0     463
85.02    380
85.04    256
85.06    225
85.08    162
85.1     197
85.12    183
85.14    196
85.16    173
85.18    204
85.2     285
85.22    284
85.24    297
85.26    295
85.28    327
85.3     331
85.32    330
85.34    367
85.36    329
85.38    359
85.4     363
85.42    380
85.44    367
85.46    308
85.48    285
85.5     256
85.52    271
85.54    292
85.56    306
85.58    315
85.6     276
85.62    287
85.64    283
85.66    247
85.68    241
85.7     252
85.72    273
85.74    277
85.76    334
85.78    293
85.8     271
85.82    285
85.84    301
85.86    295
85.88    273
85.9     264
85.92    284
85.94    238
85.96    199
85.98    80
86.0     31
86.02    75
86.04    172
86.06    196
86.08    249
86.1     300
86.12    400
86.14    461
86.16    488
86.18    505
86.2     520
86.22    567
86.24    649
86.26    663
86.28    673
86.3     670
86.32    784
86.34    890
86.36    1014
86.38    1169
86.4     1239
86.42    1231
86.44    1236
86.46    1175
86.48    1075
86.5     946
86.52    823
86.54    728
86.56    689
86.58    652
86.6     589
86.62    507
86.64    471
86.66    450
86.68    408
86.7     359
86.72    348
86.74    368
86.76    373
86.78    376
86.8     356
86.82    316
86.84    303
86.86    285
86.88    261
86.9     283
86.92    284
86.94    302
86.96    323
86.98    344
87.0     361
87.02    363
87.04    360
87.06    361
87.08    359
87.1     315
87.12    237
87.14    241
87.16    242
87.18    251
87.2     301
87.22    278
87.24    280
87.26    264
87.28    206
87.3     184
87.32    208
87.34    247
87.36    313
87.38    385
87.4     430
87.42    395
87.44    384
87.46    342
87.48    334
87.5     341
87.52    366
87.54    371
87.56    344
87.58    290
87.6     208
87.62    158
87.64    101
87.66    114
87.68    184
87.7     269
87.72    357
87.74    433
87.76    400
87.78    400
87.8     363
87.82    362
87.84    307
87.86    276
87.88    253
87.9     234
87.92    236
87.94    291
87.96    284
87.98    238
88.0     175
88.02    177
88.04    206
88.06    197
88.08    203
88.1     249
88.12    295
88.14    374
88.16    329
88.18    274
88.2     223
88.22    215
88.24    220
88.26    240
88.28    256
88.3     274
88.32    284
88.34    317
88.36    277
88.38    299
88.4     271
88.42    298
88.44    293
88.46    293
88.48    261
88.5     218
88.52    222
88.54    214
88.56    192
88.58    237
88.6     207
88.62    235
88.64    298
88.66    342
88.68    357
88.7     260
88.72    284
88.74    300
88.76    320
88.78    366
88.8     314
88.82    296
88.84    365
88.86    355
88.88    331
88.9     211
88.92    196
88.94    195
88.96    185
88.98    238
89.0     170
89.02    181
89.04    203
89.06    172
89.08    195
89.1     237
89.12    300
89.14    400
89.16    401
89.18    425
89.2     344
89.22    334
89.24    310
89.26    240
89.28    233
89.3     269
89.32    303
89.34    362
89.36    375
89.38    377
89.4     339
89.42    254
89.44    228
89.46    176
89.48    176
89.5     187
89.52    186
89.54    240
89.56    317
89.58    353
89.6     347
89.62    317
89.64    292
89.66    239
89.68    229
89.7     272
89.72    281
89.74    371
89.76    436
89.78    507
89.8     568
89.82    544
89.84    462
89.86    359
89.88    302
89.9     281
89.92    250
89.94    315
89.96    354
89.98    338
90.0     329
