?
5.0      616
5.02     616
5.04     798
5.06     698
5.08     695
5.1      642
5.12     656
5.14     655
5.16     623
5.18     623
5.2      659
5.22     686
5.24     702
5.26     668
5.28     637
5.3      636
5.32     637
5.34     615
5.36     600
5.38     609
5.4      627
5.42     634
5.44     661
5.46     650
5.48     667
5.5      696
5.52     685
5.54     652
5.56     649
5.58     630
5.6      619
5.62     628
5.64     639
5.66     636
5.68     638
5.7      656
5.72     660
5.74     688
5.76     669
5.78     680
5.8      669
5.82     706
5.84     668
5.86     653
5.88     613
5.9      608
5.92     649
5.94     648
5.96     608
5.98     611
6.0      579
6.02     601
6.04     572
6.06     596
6.08     589
6.1      572
6.12     638
6.14     619
6.16     630
6.18     622
6.2      628
6.22     620
6.24     664
6.26     703
6.28     705
6.3      701
6.32     737
6.34     711
6.36     746
6.38     712
6.4      732
6.42     669
6.44     674
6.46     653
6.48     632
6.5      632
6.52     629
6.54     593
6.56     617
6.58     585
6.6      574
6.62     535
6.64     521
6.66     559
6.68     542
6.7      563
6.72     611
6.74     614
6.76     641
6.78     621
6.8      601
6.82     624
6.84     598
6.86     648
6.88     553
6.9      566
6.92     570
6.94     553
6.96     538
6.98     571
7.0      580
7.02     616
7.04     615
7.06     626
7.08     593
7.1      678
7.12     660
7.14     664
7.16     661
7.18     658
7.2      661
7.22     628
7.24     582
7.26     536
7.28     551
7.3      588
7.32     587
7.34     587
7.36     648
7.38     657
7.4      711
7.42     691
7.44     691
7.46     682
7.48     659
7.5      661
7.52     659
7.54     648
7.56     648
7.58     648
7.6      633
7.62     644
7.64     637
7.66     661
7.68     637
7.7      627
7.72     616
7.74     631
7.76     556
7.78     582
7.8      613
7.82     615
7.84     588
7.86     613
7.88     577
7.9      578
7.92     603
7.94     639
7.96     605
7.98     638
8.0      714
8.02     663
8.04     658
8.06     620
8.08     610
8.1      590
8.12     608
8.14     600
8.16     651
8.18     699
8.2      752
8.22     777
8.24     795
8.26     730
8.28     724
8.3      647
8.32     631
8.34     607
8.36     621
8.38     612
8.4      616
8.42     647
8.44     656
8.46     682
8.48     685
8.5      672
8.52     698
8.54     653
8.56     664
8.58     601
8.6      624
8.62     623
8.64     606
8.66     653
8.68     650
8.7      689
8.72     722
8.74     720
8.76     766
8.78     712
8.8      742
8.82     689
8.84     676
8.86     655
8.88     679
8.9      663
8.92     656
8.94     653
8.96     640
8.98     594
9.0      600
9.02     589
9.04     606
9.06     566
9.08     583
9.1      569
9.12     584
9.14     574
9.16     584
9.18     610
9.2      648
9.22     646
9.24     670
9.26     659
9.28     621
9.3      632
9.32     598
9.34     613
9.36     602
9.38     613
9.4      599
9.42     632
9.44     661
9.46     689
9.48     693
9.5      693
9.52     647
9.54     680
9.56     616
9.58     559
9.6      520
9.62     547
9.64     541
9.66     572
9.68     603
9.7      604
9.72     567
9.74     594
9.76     564
9.78     548
9.8      509
9.82     555
9.84     579
9.86     557
9.88     581
9.9      624
9.92     585
9.94     604
9.96     610
9.98     613
10.0     569
10.02    589
10.04    588
10.06    559
10.08    559
10.1     562
10.12    531
10.14    528
10.16    569
10.18    631
10.2     572
10.22    606
10.24    638
10.26    643
10.28    633
10.3     622
10.32    626
10.34    617
10.36    626
10.38    630
10.4     540
10.42    526
10.44    527
10.46    488
10.48    504
10.5     520
10.52    536
10.54    571
10.56    537
10.58    583
10.6     579
10.62    538
10.64    565
10.66    587
10.68    585
10.7     607
10.72    599
10.74    629
10.76    591
10.78    598
10.8     554
10.82    482
10.84    459
10.86    497
10.88    499
10.9     525
10.92    565
10.94    643
10.96    650
10.98    667
11.0     686
11.02    634
11.04    611
11.06    601
11.08    559
11.1     525
11.12    552
11.14    620
11.16    618
11.18    618
11.2     676
11.22    647
11.24    658
11.26    633
11.28    612
11.3     664
11.32    688
11.34    713
11.36    692
11.38    662
11.4     669
11.42    659
11.44    669
11.46    661
11.48    678
11.5     710
11.52    713
11.54    745
11.56    755
11.58    751
11.6     715
11.62    728
11.64    720
11.66    670
11.68    664
11.7     653
11.72    654
11.74    664
11.76    664
11.78    673
11.8     726
11.82    761
11.84    764
11.86    813
11.88    830
11.9     835
11.92    809
11.94    751
11.96    722
11.98    754
12.0     746
12.02    734
12.04    722
12.06    783
12.08    808
12.1     824
12.12    799
12.14    785
12.16    822
12.18    818
12.2     771
12.22    768
12.24    748
12.26    716
12.28    717
12.3     702
12.32    687
12.34    729
12.36    785
12.38    812
12.4     864
12.42    850
12.44    851
12.46    811
12.48    799
12.5     795
12.52    775
12.54    777
12.56    820
12.58    840
12.6     834
12.62    803
12.64    801
12.66    797
12.68    814
12.7     818
12.72    781
12.74    816
12.76    833
12.78    853
12.8     852
12.82    842
12.84    877
12.86    885
12.88    909
12.9     936
12.92    918
12.94    883
12.96    811
12.98    856
13.0     841
13.02    804
13.04    819
13.06    734
13.08    750
13.1     836
13.12    836
13.14    796
13.16    828
13.18    903
13.2     906
13.22    871
13.24    858
13.26    830
13.28    864
13.3     927
13.32    928
13.34    966
13.36    983
13.38    930
13.4     916
13.42    898
13.44    895
13.46    873
13.48    866
13.5     900
13.52    912
13.54    885
13.56    845
13.58    850
13.6     858
13.62    869
13.64    871
13.66    902
13.68    980
13.7     1006
13.72    1017
13.74    1031
13.76    1060
13.78    1078
13.8     997
13.82    979
13.84    987
13.86    1022
13.88    1050
13.9     1065
13.92    1078
13.94    1090
13.96    1070
13.98    1024
14.0     977
14.02    1013
14.04    962
14.06    952
14.08    1013
14.1     1067
14.12    1030
14.14    1004
14.16    1071
14.18    1142
14.2     1155
14.22    1158
14.24    1117
14.26    1136
14.28    1155
14.3     1178
14.32    1182
14.34    1186
14.36    1219
14.38    1245
14.4     1138
14.42    1093
14.44    1060
14.46    1007
14.48    1057
14.5     1126
14.52    1171
14.54    1155
14.56    1122
14.58    1108
14.6     1115
14.62    1090
14.64    1057
14.66    1058
14.68    1117
14.7     1115
14.72    1114
14.74    1104
14.76    1038
14.78    1024
14.8     1149
14.82    1156
14.84    1140
14.86    1167
14.88    1186
14.9     1247
14.92    1333
14.94    1393
14.96    1362
14.98    1386
15.0     1433
15.02    1395
15.04    1273
15.06    1171
15.08    1116
15.1     1113
15.12    1132
15.14    1139
15.16    1126
15.18    1158
15.2     1202
15.22    1231
15.24    1201
15.26    1152
15.28    1151
15.3     1192
15.32    1204
15.34    1191
15.36    1190
15.38    1171
15.4     1154
15.42    1208
15.44    1251
15.46    1232
15.48    1229
15.5     1259
15.52    1307
15.54    1348
15.56    1332
15.58    1237
15.6     1211
15.62    1334
15.64    1372
15.66    1339
15.68    1280
15.7     1249
15.72    1286
15.74    1268
15.76    1251
15.78    1248
15.8     1271
15.82    1319
15.84    1333
15.86    1372
15.88    1397
15.9     1440
15.92    1506
15.94    1539
15.96    1686
15.98    1778
16.0     1777
16.02    1763
16.04    1814
16.06    1899
16.08    1959
16.1     2022
16.12    2124
16.14    2189
16.16    2382
16.18    2543
16.2     2703
16.22    2951
16.24    3255
16.26    3583
16.28    3961
16.3     4531
16.32    5226
16.34    5968
16.36    6972
16.38    8255
16.4     9792
16.42    11760
16.44    14236
16.46    17348
16.48    21516
16.5     27149
16.52    34020
16.54    41141
16.56    47121
16.58    50411
16.6     49949
16.62    45821
16.64    38673
16.66    29761
16.68    20817
16.7     13519
16.72    8550
16.74    5741
16.76    4413
16.78    3770
16.8     3373
16.82    3053
16.84    2741
16.86    2466
16.88    2237
16.9     2134
16.92    2046
16.94    1954
16.96    1876
16.98    1834
17.0     1879
17.02    1812
17.04    1737
17.06    1690
17.08    1648
17.1     1608
17.12    1629
17.14    1566
17.16    1513
17.18    1501
17.2     1512
17.22    1474
17.24    1481
17.26    1473
17.28    1385
17.3     1327
17.32    1312
17.34    1306
17.36    1280
17.38    1285
17.4     1321
17.42    1331
17.44    1331
17.46    1256
17.48    1196
17.5     1184
17.52    1165
17.54    1209
17.56    1228
17.58    1283
17.6     1242
17.62    1195
17.64    1184
17.66    1171
17.68    1182
17.7     1142
17.72    1125
17.74    1125
17.76    1164
17.78    1146
17.8     1124
17.82    1152
17.84    1178
17.86    1164
17.88    1206
17.9     1189
17.92    1104
17.94    1018
17.96    991
17.98    984
18.0     1031
18.02    974
18.04    982
18.06    1001
18.08    1038
18.1     1031
18.12    988
18.14    1002
18.16    1018
18.18    999
18.2     975
18.22    893
18.24    957
18.26    965
18.28    955
18.3     924
18.32    941
18.34    922
18.36    837
18.38    772
18.4     814
18.42    849
18.44    892
18.46    933
18.48    941
18.5     907
18.52    940
18.54    845
18.56    728
18.58    710
18.6     715
18.62    711
18.64    674
18.66    740
18.68    787
18.7     851
18.72    858
18.74    858
18.76    919
18.78    910
18.8     905
18.82    955
18.84    940
18.86    959
18.88    959
18.9     853
18.92    778
18.94    771
18.96    759
18.98    686
19.0     725
19.02    758
19.04    792
19.06    799
19.08    807
19.1     775
19.12    856
19.14    858
19.16    808
19.18    807
19.2     864
19.22    841
19.24    829
19.26    791
19.28    771
19.3     753
19.32    758
19.34    644
19.36    567
19.38    624
19.4     669
19.42    665
19.44    679
19.46    749
19.48    765
19.5     745
19.52    692
19.54    617
19.56    602
19.58    635
19.6     613
19.62    666
19.64    695
19.66    728
19.68    727
19.7     693
19.72    687
19.74    618
19.76    524
19.78    551
19.8     593
19.82    713
19.84    736
19.86    725
19.88    691
19.9     651
19.92    678
19.94    617
19.96    538
19.98    576
20.0     616
20.02    722
20.04    747
20.06    763
20.08    673
20.1     607
20.12    631
20.14    664
20.16    594
20.18    530
20.2     503
20.22    572
20.24    593
20.26    614
20.28    505
20.3     511
20.32    577
20.34    672
20.36    609
20.38    553
20.4     517
20.42    510
20.44    511
20.46    535
20.48    490
20.5     554
20.52    619
20.54    722
20.56    689
20.58    700
20.6     620
20.62    599
20.64    617
20.66    602
20.68    561
20.7     540
20.72    554
20.74    574
20.76    597
20.78    638
20.8     585
20.82    583
20.84    574
20.86    533
20.88    500
20.9     475
20.92    495
20.94    553
20.96    654
20.98    731
21.0     746
21.02    722
21.04    692
21.06    629
21.08    611
21.1     597
21.12    558
21.14    609
21.16    589
21.18    593
21.2     531
21.22    532
21.24    509
21.26    494
21.28    529
21.3     534
21.32    538
21.34    591
21.36    578
21.38    526
21.4     443
21.42    430
21.44    440
21.46    437
21.48    396
21.5     401
21.52    423
21.54    504
21.56    543
21.58    551
21.6     561
21.62    546
21.64    553
21.66    470
21.68    401
21.7     385
21.72    397
21.74    424
21.76    428
21.78    438
21.8     439
21.82    386
21.84    395
21.86    407
21.88    537
21.9     546
21.92    558
21.94    458
21.96    414
21.98    382
22.0     368
22.02    354
22.04    342
22.06    386
22.08    413
22.1     392
22.12    390
22.14    349
22.16    381
22.18    447
22.2     479
22.22    452
22.24    359
22.26    362
22.28    371
22.3     479
22.32    510
22.34    613
22.36    555
22.38    489
22.4     420
22.42    386
22.44    346
22.46    293
22.48    298
22.5     341
22.52    433
22.54    544
22.56    479
22.58    406
22.6     429
22.62    474
22.64    496
22.66    468
22.68    457
22.7     441
22.72    405
22.74    354
22.76    284
22.78    294
22.8     318
22.82    356
22.84    420
22.86    517
22.88    596
22.9     599
22.92    507
22.94    480
22.96    435
22.98    489
23.0     443
23.02    441
23.04    377
23.06    409
23.08    408
23.1     395
23.12    379
23.14    354
23.16    355
23.18    370
23.2     398
23.22    440
23.24    410
23.26    394
23.28    299
23.3     273
23.32    289
23.34    256
23.36    370
23.38    405
23.4     462
23.42    458
23.44    427
23.46    364
23.48    298
23.5     334
23.52    409
23.54    417
23.56    477
23.58    448
23.6     431
23.62    407
23.64    401
23.66    383
23.68    412
23.7     422
23.72    388
23.74    351
23.76    376
23.78    390
23.8     413
23.82    426
23.84    427
23.86    414
23.88    384
23.9     340
23.92    273
23.94    327
23.96    407
23.98    406
24.0     391
24.02    347
24.04    333
24.06    350
24.08    332
24.1     351
24.12    297
24.14    312
24.16    322
24.18    256
24.2     275
24.22    298
24.24    334
24.26    348
24.28    308
24.3     279
24.32    229
24.34    245
24.36    270
24.38    306
24.4     366
24.42    370
24.44    343
24.46    317
24.48    309
24.5     337
24.52    337
24.54    395
24.56    351
24.58    336
24.6     303
24.62    308
24.64    314
24.66    269
24.68    239
24.7     278
24.72    305
24.74    351
24.76    332
24.78    293
24.8     294
24.82    280
24.84    277
24.86    279
24.88    296
24.9     424
24.92    470
24.94    457
24.96    387
24.98    249
25.0     191
25.02    192
25.04    223
25.06    279
25.08    311
25.1     361
25.12    324
25.14    253
25.16    198
25.18    186
25.2     266
25.22    348
25.24    419
25.26    427
25.28    401
25.3     349
25.32    305
25.34    247
25.36    240
25.38    228
25.4     250
25.42    202
25.44    232
25.46    183
25.48    190
25.5     217
25.52    227
25.54    249
25.56    293
25.58    350
25.6     384
25.62    328
25.64    283
25.66    265
25.68    262
25.7     269
25.72    203
25.74    202
25.76    196
25.78    254
25.8     268
25.82    307
25.84    313
25.86    397
25.88    375
25.9     354
25.92    307
25.94    289
25.96    232
25.98    207
26.0     158
26.02    201
26.04    212
26.06    277
26.08    264
26.1     251
26.12    240
26.14    236
26.16    259
26.18    281
26.2     276
26.22    314
26.24    339
26.26    384
26.28    369
26.3     340
26.32    307
26.34    324
26.36    318
26.38    310
26.4     220
26.42    199
26.44    149
26.46    116
26.48    87
26.5     145
26.52    201
26.54    296
26.56    297
26.58    286
26.6     224
26.62    274
26.64    290
26.66    313
26.68    346
26.7     369
26.72    343
26.74    322
26.76    223
26.78    213
26.8     185
26.82    282
26.84    338
26.86    361
26.88    347
26.9     244
26.92    204
26.94    149
26.96    167
26.98    211
27.0     209
27.02    265
27.04    261
27.06    273
27.08    224
27.1     209
27.12    240
27.14    187
27.16    199
27.18    215
27.2     218
27.22    268
27.24    270
27.26    335
27.28    326
27.3     352
27.32    318
27.34    176
27.36    122
27.38    186
27.4     241
27.42    330
27.44    357
27.46    410
27.48    377
27.5     341
27.52    260
27.54    134
27.56    164
27.58    235
27.6     293
27.62    305
27.64    316
27.66    269
27.68    218
27.7     206
27.72    208
27.74    250
27.76    305
27.78    317
27.8     340
27.82    276
27.84    309
27.86    330
27.88    345
27.9     344
27.92    316
27.94    306
27.96    262
27.98    265
28.0     237
28.02    197
28.04    267
28.06    284
28.08    261
28.1     204
28.12    233
28.14    279
28.16    322
28.18    365
28.2     343
28.22    348
28.24    335
28.26    277
28.28    254
28.3     237
28.32    344
28.34    355
28.36    342
28.38    276
28.4     186
28.42    175
28.44    200
28.46    232
28.48    292
28.5     341
28.52    342
28.54    279
28.56    216
28.58    155
28.6     159
28.62    264
28.64    346
28.66    347
28.68    424
28.7     402
28.72    289
28.74    188
28.76    119
28.78    100
28.8     181
28.82    241
28.84    311
28.86    318
28.88    355
28.9     318
28.92    241
28.94    228
28.96    204
28.98    180
29.0     201
29.02    208
29.04    260
29.06    240
29.08    229
29.1     215
29.12    164
29.14    220
29.16    225
29.18    224
29.2     241
29.22    250
29.24    275
29.26    241
29.28    294
29.3     287
29.32    304
29.34    341
29.36    282
29.38    302
29.4     307
29.42    235
29.44    258
29.46    146
29.48    151
29.5     116
29.52    109
29.54    146
29.56    150
29.58    201
29.6     248
29.62    251
29.64    334
29.66    260
29.68    230
29.7     188
29.72    151
29.74    249
29.76    284
29.78    302
29.8     339
29.82    350
29.84    335
29.86    260
29.88    283
29.9     247
29.92    259
29.94    300
29.96    233
29.98    211
30.0     184
30.02    178
30.04    189
30.06    214
30.08    317
30.1     310
30.12    329
30.14    299
30.16    217
30.18    225
30.2     262
30.22    301
30.24    344
30.26    403
30.28    449
30.3     392
30.32    333
30.34    268
30.36    253
30.38    265
30.4     239
30.42    249
30.44    233
30.46    254
30.48    256
30.5     231
30.52    225
30.54    215
30.56    220
30.58    184
30.6     113
30.62    151
30.64    192
30.66    234
30.68    260
30.7     313
30.72    328
30.74    335
30.76    308
30.78    270
30.8     205
30.82    175
30.84    200
30.86    180
30.88    179
30.9     243
30.92    244
30.94    297
30.96    268
30.98    239
31.0     181
31.02    156
31.04    198
31.06    223
31.08    246
31.1     276
31.12    208
31.14    168
31.16    119
31.18    138
31.2     178
31.22    214
31.24    243
31.26    265
31.28    229
31.3     205
31.32    177
31.34    166
31.36    154
31.38    190
31.4     174
31.42    161
31.44    156
31.46    200
31.48    223
31.5     240
31.52    319
31.54    297
31.56    274
31.58    336
31.6     260
31.62    293
31.64    323
31.66    344
31.68    338
31.7     313
31.72    274
31.74    176
31.76    163
31.78    175
31.8     214
31.82    306
31.84    336
31.86    347
31.88    313
31.9     274
31.92    184
31.94    144
31.96    164
31.98    213
32.0     301
32.02    352
32.04    388
32.06    415
32.08    397
32.1     377
32.12    357
32.14    371
32.16    373
32.18    360
32.2     293
32.22    282
32.24    326
32.26    306
32.28    339
32.3     275
32.32    286
32.34    338
32.36    320
32.38    312
32.4     252
32.42    219
32.44    283
32.46    299
32.48    346
32.5     381
32.52    458
32.54    504
32.56    457
32.58    428
32.6     374
32.62    314
32.64    305
32.66    266
32.68    260
32.7     262
32.72    273
32.74    327
32.76    415
32.78    468
32.8     545
32.82    595
32.84    613
32.86    554
32.88    506
32.9     433
32.92    409
32.94    433
32.96    437
32.98    396
33.0     400
33.02    390
33.04    429
33.06    419
33.08    471
33.1     525
33.12    546
33.14    540
33.16    473
33.18    469
33.2     436
33.22    422
33.24    521
33.26    548
33.28    677
33.3     802
33.32    883
33.34    1000
33.36    1165
33.38    1371
33.4     1636
33.42    2012
33.44    2541
33.46    3285
33.48    4345
33.5     5715
33.52    7455
33.54    9354
33.56    10976
33.58    11952
33.6     12114
33.62    11418
33.64    10006
33.66    8037
33.68    5902
33.7     4081
33.72    2733
33.74    1880
33.76    1443
33.78    1191
33.8     1105
33.82    1110
33.84    1119
33.86    961
33.88    843
33.9     724
33.92    571
33.94    512
33.96    541
33.98    541
34.0     600
34.02    595
34.04    562
34.06    535
34.08    511
34.1     462
34.12    469
34.14    484
34.16    536
34.18    565
34.2     592
34.22    515
34.24    502
34.26    510
34.28    433
34.3     386
34.32    381
34.34    394
34.36    432
34.38    486
34.4     477
34.42    454
34.44    499
34.46    437
34.48    353
34.5     361
34.52    431
34.54    428
34.56    498
34.58    482
34.6     431
34.62    464
34.64    480
34.66    421
34.68    465
34.7     510
34.72    574
34.74    551
34.76    600
34.78    508
34.8     487
34.82    549
34.84    598
34.86    626
34.88    801
34.9     907
34.92    1071
34.94    1348
34.96    1736
34.98    2227
35.0     3043
35.02    4355
35.04    6163
35.06    8278
35.08    10399
35.1     11755
35.12    12212
35.14    11690
35.16    10199
35.18    7974
35.2     5628
35.22    3619
35.24    2254
35.26    1518
35.28    1215
35.3     1028
35.32    998
35.34    942
35.36    852
35.38    762
35.4     705
35.42    659
35.44    621
35.46    609
35.48    563
35.5     529
35.52    555
35.54    500
35.56    506
35.58    557
35.6     551
35.62    530
35.64    507
35.66    534
35.68    507
35.7     506
35.72    552
35.74    535
35.76    601
35.78    650
35.8     648
35.82    642
35.84    595
35.86    574
35.88    486
35.9     498
35.92    440
35.94    437
35.96    465
35.98    482
36.0     514
36.02    613
36.04    640
36.06    699
36.08    697
36.1     766
36.12    717
36.14    753
36.16    804
36.18    901
36.2     1044
36.22    1266
36.24    1547
36.26    1944
36.28    2414
36.3     3028
36.32    3862
36.34    5013
36.36    6814
36.38    9546
36.4     13300
36.42    17685
36.44    21954
36.46    24937
36.48    26030
36.5     25099
36.52    22225
36.54    17901
36.56    13185
36.58    9038
36.6     5937
36.62    4009
36.64    2949
36.66    2214
36.68    1735
36.7     1512
36.72    1312
36.74    1121
36.76    1097
36.78    1060
36.8     951
36.82    922
36.84    855
36.86    731
36.88    643
36.9     577
36.92    489
36.94    441
36.96    532
36.98    477
37.0     581
37.02    710
37.04    760
37.06    755
37.08    760
37.1     673
37.12    564
37.14    537
37.16    521
37.18    459
37.2     541
37.22    585
37.24    634
37.26    702
37.28    749
37.3     814
37.32    809
37.34    836
37.36    891
37.38    947
37.4     891
37.42    921
37.44    855
37.46    717
37.48    567
37.5     443
37.52    297
37.54    243
37.56    319
37.58    452
37.6     497
37.62    656
37.64    669
37.66    562
37.68    447
37.7     357
37.72    269
37.74    187
37.76    253
37.78    371
37.8     447
37.82    560
37.84    587
37.86    483
37.88    416
37.9     338
37.92    262
37.94    193
37.96    273
37.98    299
38.0     338
38.02    420
38.04    458
38.06    464
38.08    479
38.1     495
38.12    483
38.14    504
38.16    517
38.18    464
38.2     479
38.22    533
38.24    523
38.26    493
38.28    472
38.3     402
38.32    242
38.34    244
38.36    212
38.38    221
38.4     331
38.42    426
38.44    467
38.46    474
38.48    493
38.5     404
38.52    338
38.54    351
38.56    301
38.58    280
38.6     304
38.62    291
38.64    284
38.66    244
38.68    268
38.7     300
38.72    312
38.74    306
38.76    346
38.78    434
38.8     431
38.82    418
38.84    392
38.86    339
38.88    320
38.9     365
38.92    374
38.94    412
38.96    448
38.98    495
39.0     428
39.02    370
39.04    314
39.06    254
39.08    246
39.1     320
39.12    368
39.14    393
39.16    428
39.18    426
39.2     451
39.22    419
39.24    392
39.26    308
39.28    282
39.3     219
39.32    134
39.34    148
39.36    231
39.38    350
39.4     519
39.42    593
39.44    606
39.46    528
39.48    413
39.5     241
39.52    132
39.54    197
39.56    283
39.58    442
39.6     554
39.62    658
39.64    649
39.66    549
39.68    434
39.7     356
39.72    344
39.74    399
39.76    385
39.78    347
39.8     314
39.82    302
39.84    283
39.86    323
39.88    370
39.9     505
39.92    608
39.94    641
39.96    612
39.98    603
40.0     595
40.02    534
40.04    545
40.06    623
40.08    640
40.1     699
40.12    724
40.14    719
40.16    735
40.18    779
40.2     780
40.22    737
40.24    772
40.26    767
40.28    726
40.3     692
40.32    644
40.34    593
40.36    526
40.38    511
40.4     545
40.42    620
40.44    739
40.46    860
40.48    939
40.5     1009
40.52    952
40.54    902
40.56    820
40.58    745
40.6     683
40.62    703
40.64    790
40.66    849
40.68    884
40.7     930
40.72    860
40.74    839
40.76    779
40.78    772
40.8     806
40.82    886
40.84    945
40.86    1042
40.88    1131
40.9     1173
40.92    1137
40.94    1119
40.96    1118
40.98    1176
41.0     1207
41.02    1234
41.04    1309
41.06    1446
41.08    1515
41.1     1646
41.12    1766
41.14    1914
41.16    2127
41.18    2354
41.2     2602
41.22    2892
41.24    3272
41.26    3746
41.28    4347
41.3     5240
41.32    6365
41.34    7916
41.36    9851
41.38    12455
41.4     16000
41.42    21042
41.44    28533
41.46    39011
41.48    52405
41.5     66916
41.52    79484
41.54    87387
41.56    88734
41.58    83524
41.6     72627
41.62    58176
41.64    43156
41.66    30112
41.68    20767
41.7     14617
41.72    10703
41.74    8187
41.76    6442
41.78    5340
41.8     4595
41.82    4108
41.84    3749
41.86    3394
41.88    3101
41.9     2725
41.92    2359
41.94    2121
41.96    1888
41.98    1695
42.0     1566
42.02    1528
42.04    1516
42.06    1457
42.08    1435
42.1     1403
42.12    1281
42.14    1183
42.16    1084
42.18    1011
42.2     926
42.22    890
42.24    868
42.26    916
42.28    958
42.3     952
42.32    997
42.34    987
42.36    1024
42.38    948
42.4     857
42.42    796
42.44    719
42.46    725
42.48    681
42.5     704
42.52    705
42.54    699
42.56    773
42.58    744
42.6     767
42.62    879
42.64    943
42.66    906
42.68    870
42.7     912
42.72    788
42.74    701
42.76    631
42.78    575
42.8     547
42.82    598
42.84    671
42.86    703
42.88    736
42.9     824
42.92    795
42.94    771
42.96    694
42.98    676
43.0     588
43.02    582
43.04    585
43.06    579
43.08    635
43.1     687
43.12    706
43.14    746
43.16    778
43.18    804
43.2     750
43.22    681
43.24    641
43.26    573
43.28    591
43.3     540
43.32    526
43.34    596
43.36    609
43.38    619
43.4     588
43.42    537
43.44    512
43.46    414
43.48    392
43.5     343
43.52    389
43.54    454
43.56    450
43.58    567
43.6     606
43.62    638
43.64    608
43.66    591
43.68    556
43.7     501
43.72    514
43.74    502
43.76    496
43.78    536
43.8     554
43.82    594
43.84    589
43.86    597
43.88    623
43.9     669
43.92    666
43.94    663
43.96    605
43.98    571
44.0     529
44.02    506
44.04    441
44.06    465
44.08    478
44.1     436
44.12    392
44.14    345
44.16    356
44.18    413
44.2     453
44.22    569
44.24    672
44.26    780
44.28    783
44.3     694
44.32    659
44.34    557
44.36    519
44.38    475
44.4     449
44.42    498
44.44    576
44.46    560
44.48    524
44.5     485
44.52    525
44.54    491
44.56    455
44.58    455
44.6     440
44.62    507
44.64    554
44.66    537
44.68    549
44.7     584
44.72    665
44.74    576
44.76    537
44.78    524
44.8     434
44.82    423
44.84    431
44.86    568
44.88    687
44.9     865
44.92    1079
44.94    1254
44.96    1475
44.98    1637
45.0     1764
45.02    1911
45.04    1968
45.06    1934
45.08    1796
45.1     1644
45.12    1416
45.14    1159
45.16    923
45.18    738
45.2     619
45.22    581
45.24    553
45.26    555
45.28    636
45.3     622
45.32    618
45.34    603
45.36    575
45.38    514
45.4     495
45.42    527
45.44    501
45.46    497
45.48    530
45.5     529
45.52    550
45.54    547
45.56    517
45.58    500
45.6     538
45.62    566
45.64    522
45.66    563
45.68    543
45.7     513
45.72    429
45.74    395
45.76    379
45.78    382
45.8     442
45.82    463
45.84    511
45.86    541
45.88    480
45.9     480
45.92    454
45.94    531
45.96    574
45.98    598
46.0     626
46.02    557
46.04    551
46.06    453
46.08    402
46.1     395
46.12    407
46.14    467
46.16    481
46.18    568
46.2     622
46.22    640
46.24    600
46.26    558
46.28    562
46.3     526
46.32    511
46.34    464
46.36    495
46.38    553
46.4     508
46.42    497
46.44    471
46.46    486
46.48    431
46.5     388
46.52    427
46.54    478
46.56    517
46.58    526
46.6     528
46.62    555
46.64    561
46.66    450
46.68    362
46.7     320
46.72    300
46.74    280
46.76    235
46.78    273
46.8     306
46.82    370
46.84    400
46.86    391
46.88    439
46.9     427
46.92    442
46.94    432
46.96    455
46.98    470
47.0     463
47.02    501
47.04    447
47.06    435
47.08    405
47.1     378
47.12    405
47.14    372
47.16    378
47.18    447
47.2     480
47.22    489
47.24    517
47.26    603
47.28    608
47.3     597
47.32    549
47.34    518
47.36    470
47.38    424
47.4     293
47.42    262
47.44    366
47.46    399
47.48    469
47.5     572
47.52    624
47.54    677
47.56    579
47.58    443
47.6     303
47.62    258
47.64    228
47.66    176
47.68    296
47.7     454
47.72    532
47.74    585
47.76    607
47.78    622
47.8     591
47.82    604
47.84    533
47.86    494
47.88    501
47.9     552
47.92    528
47.94    484
47.96    469
47.98    412
48.0     409
48.02    379
48.04    299
48.06    279
48.08    258
48.1     326
48.12    322
48.14    372
48.16    413
48.18    466
48.2     566
48.22    575
48.24    559
48.26    569
48.28    527
48.3     538
48.32    552
48.34    603
48.36    570
48.38    578
48.4     495
48.42    467
48.44    351
48.46    315
48.48    310
48.5     311
48.52    403
48.54    445
48.56    475
48.58    501
48.6     442
48.62    453
48.64    377
48.66    354
48.68    384
48.7     359
48.72    400
48.74    394
48.76    430
48.78    490
48.8     485
48.82    500
48.84    486
48.86    420
48.88    416
48.9     377
48.92    316
48.94    309
48.96    346
48.98    376
49.0     412
49.02    435
49.04    422
49.06    427
49.08    472
49.1     463
49.12    443
49.14    482
49.16    471
49.18    412
49.2     398
49.22    361
49.24    361
49.26    431
49.28    487
49.3     453
49.32    468
49.34    464
49.36    416
49.38    357
49.4     317
49.42    298
49.44    329
49.46    338
49.48    357
49.5     389
49.52    477
49.54    486
49.56    493
49.58    475
49.6     438
49.62    411
49.64    401
49.66    379
49.68    376
49.7     438
49.72    446
49.74    393
49.76    402
49.78    333
49.8     273
49.82    293
49.84    301
49.86    373
49.88    380
49.9     436
49.92    490
49.94    479
49.96    456
49.98    368
50.0     303
50.02    343
50.04    360
50.06    369
50.08    389
50.1     422
50.12    433
50.14    431
50.16    388
50.18    321
50.2     259
50.22    333
50.24    299
50.26    266
50.28    292
50.3     302
50.32    305
50.34    385
50.36    402
50.38    372
50.4     381
50.42    442
50.44    405
50.46    421
50.48    409
50.5     451
50.52    493
50.54    458
50.56    455
50.58    377
50.6     372
50.62    379
50.64    355
50.66    339
50.68    356
50.7     440
50.72    516
50.74    483
50.76    522
50.78    507
50.8     512
50.82    418
50.84    328
50.86    216
50.88    223
50.9     239
50.92    266
50.94    278
50.96    373
50.98    427
51.0     431
51.02    407
51.04    433
51.06    423
51.08    430
51.1     390
51.12    353
51.14    330
51.16    362
51.18    359
51.2     345
51.22    389
51.24    438
51.26    461
51.28    446
51.3     445
51.32    420
51.34    449
51.36    504
51.38    528
51.4     537
51.42    559
51.44    520
51.46    544
51.48    477
51.5     448
51.52    365
51.54    416
51.56    480
51.58    517
51.6     523
51.62    541
51.64    573
51.66    601
51.68    524
51.7     494
51.72    460
51.74    494
51.76    445
51.78    398
51.8     354
51.82    387
51.84    372
51.86    350
51.88    397
51.9     413
51.92    471
51.94    517
51.96    479
51.98    487
52.0     502
52.02    462
52.04    407
52.06    415
52.08    419
52.1     459
52.12    540
52.14    595
52.16    653
52.18    669
52.2     689
52.22    658
52.24    547
52.26    445
52.28    343
52.3     278
52.32    303
52.34    268
52.36    342
52.38    369
52.4     476
52.42    550
52.44    546
52.46    599
52.48    618
52.5     581
52.52    630
52.54    566
52.56    530
52.58    440
52.6     426
52.62    397
52.64    377
52.66    417
52.68    451
52.7     512
52.72    566
52.74    617
52.76    585
52.78    579
52.8     619
52.82    578
52.84    547
52.86    510
52.88    455
52.9     487
52.92    466
52.94    463
52.96    481
52.98    532
53.0     630
53.02    695
53.04    768
53.06    785
53.08    825
53.1     832
53.12    823
53.14    809
53.16    797
53.18    799
53.2     842
53.22    866
53.24    963
53.26    1073
53.28    1254
53.3     1526
53.32    1919
53.34    2392
53.36    2995
53.38    3771
53.4     4652
53.42    5589
53.44    6489
53.46    7138
53.48    7450
53.5     7395
53.52    6866
53.54    6061
53.56    5090
53.58    4147
53.6     3311
53.62    2658
53.64    2150
53.66    1851
53.68    1560
53.7     1315
53.72    1076
53.74    981
53.76    850
53.78    809
53.8     722
53.82    726
53.84    765
53.86    852
53.88    751
53.9     727
53.92    705
53.94    686
53.96    590
53.98    475
54.0     385
54.02    452
54.04    530
54.06    544
54.08    537
54.1     550
54.12    616
54.14    683
54.16    673
54.18    536
54.2     489
54.22    493
54.24    519
54.26    468
54.28    381
54.3     332
54.32    463
54.34    600
54.36    573
54.38    465
54.4     454
54.42    455
54.44    485
54.46    414
54.48    275
54.5     265
54.52    342
54.54    411
54.56    381
54.58    340
54.6     394
54.62    479
54.64    551
54.66    563
54.68    552
54.7     581
54.72    609
54.74    614
54.76    552
54.78    461
54.8     395
54.82    330
54.84    258
54.86    217
54.88    200
54.9     226
54.92    234
54.94    296
54.96    365
54.98    415
55.0     430
55.02    440
55.04    474
55.06    469
55.08    495
55.1     481
55.12    461
55.14    456
55.16    443
55.18    343
55.2     310
55.22    329
55.24    310
55.26    285
55.28    394
55.3     392
55.32    455
55.34    500
55.36    515
55.38    528
55.4     605
55.42    612
55.44    518
55.46    464
55.48    413
55.5     372
55.52    350
55.54    357
55.56    377
55.58    439
55.6     504
55.62    578
55.64    608
55.66    656
55.68    634
55.7     626
55.72    590
55.74    586
55.76    508
55.78    434
55.8     409
55.82    428
55.84    487
55.86    533
55.88    459
55.9     432
55.92    467
55.94    454
55.96    400
55.98    337
56.0     305
56.02    360
56.04    435
56.06    410
56.08    383
56.1     431
56.12    457
56.14    477
56.16    493
56.18    446
56.2     444
56.22    496
56.24    516
56.26    481
56.28    503
56.3     472
56.32    396
56.34    424
56.36    377
56.38    301
56.4     315
56.42    377
56.44    429
56.46    482
56.48    496
56.5     474
56.52    456
56.54    538
56.56    478
56.58    463
56.6     427
56.62    444
56.64    399
56.66    420
56.68    399
56.7     447
56.72    478
56.74    556
56.76    587
56.78    592
56.8     557
56.82    571
56.84    484
56.86    475
56.88    359
56.9     308
56.92    309
56.94    359
56.96    369
56.98    407
57.0     491
57.02    573
57.04    619
57.06    625
57.08    562
57.1     541
57.12    578
57.14    584
57.16    505
57.18    480
57.2     435
57.22    475
57.24    551
57.26    501
57.28    520
57.3     504
57.32    538
57.34    570
57.36    554
57.38    493
57.4     445
57.42    507
57.44    498
57.46    408
57.48    407
57.5     385
57.52    367
57.54    421
57.56    461
57.58    489
57.6     569
57.62    724
57.64    772
57.66    788
57.68    785
57.7     728
57.72    692
57.74    719
57.76    711
57.78    701
57.8     737
57.82    899
57.84    1002
57.86    1102
57.88    1140
57.9     1206
57.92    1362
57.94    1510
57.96    1593
57.98    1585
58.0     1649
58.02    1844
58.04    2059
58.06    2288
58.08    2552
58.1     2956
58.12    3563
58.14    4462
58.16    5542
58.18    6904
58.2     8682
58.22    10867
58.24    13245
58.26    15401
58.28    16942
58.3     17611
58.32    17343
58.34    16217
58.36    14285
58.38    11927
58.4     9531
58.42    7531
58.44    6001
58.46    4826
58.48    3983
58.5     3392
58.52    2973
58.54    2683
58.56    2482
58.58    2149
58.6     1854
58.62    1653
58.64    1456
58.66    1314
58.68    1174
58.7     1037
58.72    910
58.74    964
58.76    934
58.78    807
58.8     766
58.82    737
58.84    779
58.86    822
58.88    829
58.9     735
58.92    735
58.94    803
58.96    765
58.98    787
59.0     692
59.02    649
59.04    590
59.06    592
59.08    600
59.1     518
59.12    530
59.14    530
59.16    661
59.18    700
59.2     649
59.22    656
59.24    620
59.26    685
59.28    666
59.3     646
59.32    490
59.34    479
59.36    510
59.38    452
59.4     420
59.42    410
59.44    398
59.46    453
59.48    536
59.5     557
59.52    522
59.54    608
59.56    639
59.58    668
59.6     643
59.62    585
59.64    442
59.66    373
59.68    312
59.7     290
59.72    305
59.74    340
59.76    370
59.78    429
59.8     484
59.82    518
59.84    555
59.86    585
59.88    588
59.9     682
59.92    707
59.94    723
59.96    666
59.98    622
60.0     537
60.02    472
60.04    465
60.06    386
60.08    285
60.1     323
60.12    385
60.14    431
60.16    443
60.18    532
60.2     520
60.22    529
60.24    549
60.26    514
60.28    470
60.3     460
60.32    531
60.34    540
60.36    581
60.38    678
60.4     654
60.42    652
60.44    622
60.46    567
60.48    431
60.5     305
60.52    345
60.54    344
60.56    372
60.58    419
60.6     467
60.62    543
60.64    573
60.66    562
60.68    499
60.7     451
60.72    485
60.74    446
60.76    384
60.78    335
60.8     327
60.82    351
60.84    372
60.86    399
60.88    423
60.9     438
60.92    501
60.94    521
60.96    492
60.98    443
61.0     439
61.02    445
61.04    413
61.06    417
61.08    441
61.1     431
61.12    461
61.14    492
61.16    482
61.18    450
61.2     495
61.22    528
61.24    496
61.26    545
61.28    593
61.3     580
61.32    593
61.34    610
61.36    588
61.38    499
61.4     508
61.42    544
61.44    536
61.46    569
61.48    583
61.5     604
61.52    631
61.54    729
61.56    759
61.58    731
61.6     725
61.62    716
61.64    684
61.66    711
61.68    726
61.7     783
61.72    834
61.74    935
61.76    1026
61.78    1083
61.8     1108
61.82    1215
61.84    1376
61.86    1611
61.88    1883
61.9     2151
61.92    2439
61.94    2863
61.96    3525
61.98    4383
62.0     5669
62.02    7514
62.04    9913
62.06    12755
62.08    15697
62.1     18099
62.12    19593
62.14    19895
62.16    18958
62.18    16885
62.2     14190
62.22    11335
62.24    8723
62.26    6645
62.28    5110
62.3     4006
62.32    3205
62.34    2599
62.36    2185
62.38    1817
62.4     1582
62.42    1424
62.44    1314
62.46    1207
62.48    1073
62.5     1024
62.52    983
62.54    916
62.56    887
62.58    876
62.6     857
62.62    810
62.64    764
62.66    674
62.68    616
62.7     566
62.72    564
62.74    513
62.76    483
62.78    559
62.8     605
62.82    604
62.84    569
62.86    563
62.88    573
62.9     536
62.92    549
62.94    458
62.96    401
62.98    442
63.0     489
63.02    542
63.04    574
63.06    622
63.08    663
63.1     694
63.12    699
63.14    619
63.16    566
63.18    527
63.2     481
63.22    489
63.24    494
63.26    556
63.28    564
63.3     592
63.32    622
63.34    585
63.36    575
63.38    587
63.4     575
63.42    535
63.44    511
63.46    524
63.48    467
63.5     446
63.52    431
63.54    451
63.56    473
63.58    522
63.6     534
63.62    583
63.64    621
63.66    661
63.68    661
63.7     634
63.72    592
63.74    664
63.76    664
63.78    674
63.8     596
63.82    618
63.84    519
63.86    439
63.88    389
63.9     338
63.92    278
63.94    342
63.96    345
63.98    406
64.0     342
64.02    408
64.04    412
64.06    478
64.08    533
64.1     555
64.12    577
64.14    661
64.16    585
64.18    604
64.2     521
64.22    506
64.24    476
64.26    473
64.28    420
64.3     354
64.32    368
64.34    443
64.36    431
64.38    497
64.4     552
64.42    548
64.44    613
64.46    698
64.48    736
64.5     743
64.52    779
64.54    846
64.56    871
64.58    932
64.6     1031
64.62    1068
64.64    1256
64.66    1488
64.68    1824
64.7     2297
64.72    2845
64.74    3479
64.76    4097
64.78    4643
64.8     4999
64.82    5062
64.84    4874
64.86    4464
64.88    3817
64.9     3153
64.92    2498
64.94    1970
64.96    1654
64.98    1350
65.0     1106
65.02    979
65.04    867
65.06    813
65.08    676
65.1     663
65.12    621
65.14    574
65.16    679
65.18    637
65.2     551
65.22    583
65.24    532
65.26    513
65.28    489
65.3     492
65.32    484
65.34    441
65.36    475
65.38    472
65.4     404
65.42    457
65.44    449
65.46    478
65.48    450
65.5     428
65.52    428
65.54    401
65.56    381
65.58    393
65.6     370
65.62    386
65.64    432
65.66    492
65.68    522
65.7     500
65.72    415
65.74    408
65.76    400
65.78    384
65.8     401
65.82    393
65.84    377
65.86    318
65.88    330
65.9     334
65.92    299
65.94    307
65.96    314
65.98    290
66.0     370
66.02    373
66.04    375
66.06    379
66.08    442
66.1     522
66.12    524
66.14    487
66.16    497
66.18    474
66.2     445
66.22    331
66.24    350
66.26    333
66.28    301
66.3     296
66.32    265
66.34    277
66.36    310
66.38    410
66.4     452
66.42    439
66.44    550
66.46    606
66.48    592
66.5     547
66.52    482
66.54    411
66.56    310
66.58    224
66.6     152
66.62    81
66.64    150
66.66    210
66.68    287
66.7     410
66.72    568
66.74    647
66.76    710
66.78    669
66.8     633
66.82    549
66.84    477
66.86    408
66.88    385
66.9     275
66.92    256
66.94    217
66.96    243
66.98    285
67.0     295
67.02    343
67.04    338
67.06    380
67.08    437
67.1     390
67.12    400
67.14    401
67.16    403
67.18    404
67.2     347
67.22    376
67.24    360
67.26    378
67.28    455
67.3     442
67.32    506
67.34    532
67.36    531
67.38    492
67.4     350
67.42    306
67.44    298
67.46    244
67.48    276
67.5     277
67.52    411
67.54    404
67.56    392
67.58    383
67.6     346
67.62    336
67.64    374
67.66    391
67.68    454
67.7     452
67.72    504
67.74    468
67.76    416
67.78    438
67.8     424
67.82    376
67.84    366
67.86    307
67.88    259
67.9     201
67.92    232
67.94    255
67.96    285
67.98    312
68.0     372
68.02    426
68.04    499
68.06    547
68.08    602
68.1     639
68.12    681
68.14    652
68.16    652
68.18    607
68.2     535
68.22    467
68.24    418
68.26    359
68.28    278
68.3     224
68.32    210
68.34    171
68.36    211
68.38    239
68.4     269
68.42    392
68.44    476
68.46    541
68.48    608
68.5     628
68.52    620
68.54    590
68.56    547
68.58    567
68.6     592
68.62    594
68.64    585
68.66    628
68.68    684
68.7     685
68.72    680
68.74    794
68.76    844
68.78    1010
68.8     1140
68.82    1213
68.84    1399
68.86    1601
68.88    1906
68.9     2183
68.92    2606
68.94    3123
68.96    3566
68.98    4058
69.0     4383
69.02    4502
69.04    4484
69.06    4200
69.08    3788
69.1     3230
69.12    2754
69.14    2268
69.16    1932
69.18    1626
69.2     1367
69.22    1164
69.24    1026
69.26    861
69.28    709
69.3     638
69.32    597
69.34    589
69.36    562
69.38    472
69.4     435
69.42    472
69.44    505
69.46    540
69.48    578
69.5     651
69.52    719
69.54    702
69.56    641
69.58    590
69.6     570
69.62    522
69.64    499
69.66    453
69.68    452
69.7     431
69.72    372
69.74    353
69.76    346
69.78    324
69.8     377
69.82    374
69.84    406
69.86    387
69.88    420
69.9     381
69.92    389
69.94    392
69.96    369
69.98    342
70.0     374
70.02    324
70.04    373
70.06    429
70.08    476
70.1     534
70.12    544
70.14    575
70.16    642
70.18    579
70.2     536
70.22    520
70.24    558
70.26    517
70.28    529
70.3     490
70.32    487
70.34    490
70.36    482
70.38    502
70.4     587
70.42    645
70.44    696
70.46    776
70.48    899
70.5     1073
70.52    1277
70.54    1457
70.56    1638
70.58    1880
70.6     2106
70.62    2240
70.64    2324
70.66    2283
70.68    2163
70.7     1987
70.72    1764
70.74    1491
70.76    1264
70.78    1146
70.8     1020
70.82    897
70.84    812
70.86    727
70.88    690
70.9     666
70.92    651
70.94    616
70.96    634
70.98    583
71.0     482
71.02    428
71.04    446
71.06    410
71.08    426
71.1     447
71.12    405
71.14    392
71.16    412
71.18    416
71.2     462
71.22    512
71.24    580
71.26    560
71.28    565
71.3     549
71.32    510
71.34    498
71.36    470
71.38    447
71.4     392
71.42    368
71.44    349
71.46    327
71.48    330
71.5     442
71.52    469
71.54    468
71.56    441
71.58    470
71.6     436
71.62    431
71.64    381
71.66    381
71.68    395
71.7     497
71.72    479
71.74    454
71.76    487
71.78    433
71.8     383
71.82    342
71.84    295
71.86    338
71.88    353
71.9     378
71.92    415
71.94    472
71.96    516
71.98    546
72.0     619
72.02    683
72.04    690
72.06    757
72.08    787
72.1     792
72.12    804
72.14    767
72.16    766
72.18    771
72.2     845
72.22    895
72.24    853
72.26    950
72.28    1024
72.3     1092
72.32    1182
72.34    1350
72.36    1600
72.38    1952
72.4     2505
72.42    3068
72.44    3674
72.46    4402
72.48    5040
72.5     5550
72.52    5841
72.54    5880
72.56    5526
72.58    5100
72.6     4440
72.62    3743
72.64    3046
72.66    2480
72.68    2056
72.7     1713
72.72    1465
72.74    1252
72.76    1090
72.78    1070
72.8     1013
72.82    994
72.84    1029
72.86    1020
72.88    1032
72.9     941
72.92    905
72.94    816
72.96    745
72.98    682
73.0     596
73.02    499
73.04    454
73.06    367
73.08    359
73.1     370
73.12    439
73.14    466
73.16    479
73.18    517
73.2     523
73.22    577
73.24    593
73.26    660
73.28    762
73.3     887
73.32    1028
73.34    1105
73.36    1205
73.38    1242
73.4     1246
73.42    1265
73.44    1263
73.46    1195
73.48    1100
73.5     991
73.52    863
73.54    694
73.56    588
73.58    460
73.6     461
73.62    475
73.64    572
73.66    511
73.68    500
73.7     512
73.72    491
73.74    528
73.76    561
73.78    544
73.8     610
73.82    596
73.84    545
73.86    377
73.88    385
73.9     397
73.92    441
73.94    537
73.96    562
73.98    533
74.0     621
74.02    671
74.04    674
74.06    783
74.08    950
74.1     1006
74.12    1162
74.14    1299
74.16    1463
74.18    1752
74.2     2075
74.22    2368
74.24    2607
74.26    2743
74.28    2724
74.3     2567
74.32    2390
74.34    2104
74.36    1844
74.38    1626
74.4     1380
74.42    1202
74.44    1065
74.46    916
74.48    846
74.5     776
74.52    781
74.54    714
74.56    651
74.58    600
74.6     602
74.62    666
74.64    718
74.66    781
74.68    829
74.7     945
74.72    1083
74.74    1128
74.76    1230
74.78    1376
74.8     1617
74.82    1813
74.84    2012
74.86    2203
74.88    2317
74.9     2383
74.92    2300
74.94    2164
74.96    2033
74.98    1828
75.0     1617
75.02    1370
75.04    1286
75.06    1148
75.08    963
75.1     806
75.12    710
75.14    703
75.16    686
75.18    588
75.2     544
75.22    527
75.24    553
75.26    459
75.28    419
75.3     417
75.32    425
75.34    420
75.36    390
75.38    386
75.4     419
75.42    438
75.44    417
75.46    453
75.48    487
75.5     444
75.52    410
75.54    364
75.56    344
75.58    356
75.6     367
75.62    379
75.64    376
75.66    472
75.68    434
75.7     422
75.72    446
75.74    449
75.76    405
75.78    396
75.8     378
75.82    342
75.84    309
75.86    306
75.88    281
75.9     314
75.92    325
75.94    314
75.96    276
75.98    327
76.0     355
76.02    382
76.04    380
76.06    340
76.08    342
76.1     343
76.12    269
76.14    228
76.16    207
76.18    260
76.2     282
76.22    304
76.24    266
76.26    228
76.28    256
76.3     283
76.32    265
76.34    284
76.36    285
76.38    298
76.4     326
76.42    411
76.44    442
76.46    509
76.48    622
76.5     654
76.52    644
76.54    549
76.56    430
76.58    302
76.6     288
76.62    278
76.64    245
76.66    247
76.68    229
76.7     188
76.72    203
76.74    218
76.76    228
76.78    294
76.8     401
76.82    448
76.84    477
76.86    460
76.88    408
76.9     424
76.92    497
76.94    510
76.96    497
76.98    517
77.0     505
77.02    463
77.04    429
77.06    389
77.08    404
77.1     515
77.12    582
77.14    607
77.16    677
77.18    671
77.2     695
77.22    671
77.24    699
77.26    764
77.28    823
77.3     949
77.32    1061
77.34    1255
77.36    1533
77.38    1806
77.4     2222
77.42    2701
77.44    3380
77.46    4136
77.48    4847
77.5     5575
77.52    6194
77.54    6586
77.56    6685
77.58    6425
77.6     5958
77.62    5338
77.64    4628
77.66    3890
77.68    3166
77.7     2541
77.72    2069
77.74    1689
77.76    1380
77.78    1202
77.8     1107
77.82    1028
77.84    914
77.86    810
77.88    770
77.9     770
77.92    766
77.94    714
77.96    724
77.98    743
78.0     702
78.02    580
78.04    498
78.06    447
78.08    493
78.1     548
78.12    482
78.14    449
78.16    468
78.18    470
78.2     425
78.22    383
78.24    356
78.26    329
78.28    347
78.3     343
78.32    250
78.34    198
78.36    248
78.38    273
78.4     258
78.42    252
78.44    205
78.46    164
78.48    187
78.5     179
78.52    124
78.54    200
78.56    358
78.58    412
78.6     452
78.62    439
78.64    426
78.66    370
78.68    348
78.7     332
78.72    314
78.74    357
78.76    372
78.78    323
78.8     265
78.82    191
78.84    198
78.86    205
78.88    241
78.9     330
78.92    412
78.94    458
78.96    497
78.98    501
79.0     473
79.02    433
79.04    433
79.06    441
79.08    415
79.1     423
79.12    399
79.14    382
79.16    367
79.18    356
79.2     260
79.22    210
79.24    157
79.26    148
79.28    188
79.3     179
79.32    284
79.34    383
79.36    448
79.38    430
79.4     376
79.42    381
79.44    325
79.46    325
79.48    358
79.5     264
79.52    322
79.54    308
79.56    252
79.58    195
79.6     186
79.62    237
79.64    180
79.66    242
79.68    282
79.7     297
79.72    388
79.74    480
79.76    522
79.78    552
79.8     596
79.82    592
79.84    494
79.86    432
79.88    428
79.9     443
79.92    493
79.94    583
79.96    640
79.98    628
80.0     645
80.02    604
80.04    506
80.06    440
80.08    400
80.1     351
80.12    239
80.14    201
80.16    184
80.18    185
80.2     169
80.22    164
80.24    183
80.26    260
80.28    314
80.3     322
80.32    305
80.34    325
80.36    386
80.38    412
80.4     368
80.42    356
80.44    347
80.46    407
80.48    412
80.5     425
80.52    400
80.54    362
80.56    318
80.58    250
80.6     154
80.62    76
80.64    48
80.66    65
80.68    78
80.7     142
80.72    216
80.74    274
80.76    337
80.78    344
80.8     332
80.82    350
80.84    386
80.86    388
80.88    386
80.9     401
80.92    464
80.94    458
80.96    433
80.98    419
81.0     357
81.02    361
81.04    303
81.06    239
81.08    248
81.1     195
81.12    197
81.14    207
81.16    197
81.18    182
81.2     183
81.22    181
81.24    169
81.26    184
81.28    278
81.3     295
81.32    351
81.34    402
81.36    380
81.38    353
81.4     354
81.42    330
81.44    357
81.46    360
81.48    386
81.5     431
81.52    367
81.54    292
81.56    238
81.58    152
81.6     93
81.62    108
81.64    178
81.66    208
81.68    244
81.7     253
81.72    223
81.74    232
81.76    280
81.78    294
81.8     346
81.82    384
81.84    458
81.86    432
81.88    366
81.9     266
81.92    208
81.94    177
81.96    175
81.98    215
82.0     227
82.02    224
82.04    235
82.06    225
82.08    190
82.1     118
82.12    151
82.14    198
82.16    257
82.18    305
82.2     292
82.22    311
82.24    266
82.26    268
82.28    247
82.3     181
82.32    214
82.34    319
82.36    341
82.38    311
82.4     311
82.42    288
82.44    220
82.46    179
82.48    172
82.5     221
82.52    256
82.54    392
82.56    376
82.58    340
82.6     353
82.62    295
82.64    275
82.66    284
82.68    311
82.7     374
82.72    429
82.74    434
82.76    351
82.78    280
82.8     209
82.82    212
82.84    204
82.86    218
82.88    185
82.9     225
82.92    283
82.94    239
82.96    225
82.98    219
83.0     200
83.02    246
83.04    258
83.06    322
83.08    308
83.1     372
83.12    346
83.14    363
83.16    339
83.18    320
83.2     267
83.22    258
83.24    276
83.26    240
83.28    229
83.3     231
83.32    132
83.34    167
83.36    130
83.38    205
83.4     271
83.42    306
83.44    345
83.46    278
83.48    266
83.5     176
83.52    124
83.54    172
83.56    171
83.58    290
83.6     300
83.62    298
83.64    259
83.66    195
83.68    134
83.7     122
83.72    210
83.74    296
83.76    298
83.78    392
83.8     376
83.82    398
83.84    333
83.86    377
83.88    404
83.9     485
83.92    497
83.94    517
83.96    469
83.98    429
84.0     319
84.02    252
84.04    152
84.06    174
84.08    192
84.1     270
84.12    210
84.14    282
84.16    260
84.18    230
84.2     202
84.22    184
84.24    214
84.26    257
84.28    261
84.3     330
84.32    247
84.34    251
84.36    99
84.38    134
84.4     166
84.42    200
84.44    221
84.46    240
84.48    293
84.5     276
84.52    220
84.54    197
84.56    118
84.58    178
84.6     253
84.62    388
84.64    380
84.66    448
84.68    466
84.7     504
84.72    520
84.74    521
84.76    521
84.78    495
84.8     524
84.82    580
84.84    501
84.86    407
84.88    277
84.9     341
84.92    382
84.94    458
84.96    492
84.98    474
85.0     481
85.02    509
85.04    479
85.06    359
85.08    251
85.1     246
85.12    252
85.14    277
85.16    224
85.18    116
85.2     101
85.22    151
85.24    125
85.26    119
85.28    45
85.3     56
85.32    109
85.34    102
85.36    86
85.38    105
85.4     153
85.42    191
85.44    209
85.46    245
85.48    215
85.5     300
85.52    321
85.54    294
85.56    304
85.58    355
85.6     366
85.62    380
85.64    338
85.66    330
85.68    336
85.7     329
85.72    288
85.74    293
85.76    266
85.78    269
85.8     279
85.82    293
85.84    230
85.86    253
85.88    239
85.9     266
85.92    248
85.94    273
85.96    301
85.98    308
86.0     313
86.02    349
86.04    347
86.06    382
86.08    355
86.1     342
86.12    322
86.14    345
86.16    301
86.18    310
86.2     316
86.22    365
86.24    441
86.26    542
86.28    614
86.3     699
86.32    757
86.34    834
86.36    938
86.38    1009
86.4     1019
86.42    1102
86.44    1134
86.46    1104
86.48    1094
86.5     1030
86.52    881
86.54    782
86.56    720
86.58    613
86.6     550
86.62    575
86.64    548
86.66    534
86.68    517
86.7     511
86.72    493
86.74    475
86.76    402
86.78    423
86.8     374
86.82    353
86.84    396
86.86    376
86.88    302
86.9     323
86.92    338
86.94    317
86.96    275
86.98    258
87.0     193
87.02    206
87.04    269
87.06    249
87.08    270
87.1     303
87.12    277
87.14    253
87.16    226
87.18    134
87.2     135
87.22    226
87.24    279
87.26    306
87.28    412
87.3     452
87.32    392
87.34    381
87.36    342
87.38    259
87.4     293
87.42    340
87.44    350
87.46    362
87.48    352
87.5     313
87.52    231
87.54    210
87.56    148
87.58    113
87.6     174
87.62    224
87.64    306
87.66    343
87.68    270
87.7     215
87.72    184
87.74    166
87.76    153
87.78    150
87.8     202
87.82    257
87.84    367
87.86    409
87.88    310
87.9     331
87.92    329
87.94    425
87.96    469
87.98    428
88.0     434
88.02    426
88.04    429
88.06    363
88.08    267
88.1     268
88.12    220
88.14    299
88.16    296
88.18    255
88.2     246
88.22    181
88.24    132
88.26    130
88.28    134
88.3     198
88.32    270
88.34    342
88.36    385
88.38    398
88.4     438
88.42    385
88.44    365
88.46    407
88.48    405
88.5     451
88.52    387
88.54    290
88.56    236
88.58    162
88.6     143
88.62    135
88.64    95
88.66    125
88.68    124
88.7     141
88.72    81
88.74    31
88.76    69
88.78    68
88.8     131
88.82    260
88.84    273
88.86    355
88.88    381
88.9     381
88.92    389
88.94    400
88.96    399
88.98    360
89.0     377
89.02    392
89.04    382
89.06    338
89.08    228
89.1     204
89.12    245
89.14    233
89.16    226
89.18    224
89.2     256
89.22    213
89.24    233
89.26    181
89.28    134
89.3     164
89.32    195
89.34    207
89.36    267
89.38    323
89.4     340
89.42    382
89.44    377
89.46    335
89.48    327
89.5     308
89.52    303
89.54    303
89.56    298
89.58    297
89.6     271
89.62    330
89.64    292
89.66    233
89.68    242
89.7     207
89.72    256
89.74    275
89.76    294
89.78    260
89.8     332
89.82    382
89.84    416
89.86    390
89.88    374
89.9     336
89.92    372
89.94    339
89.96    424
89.98    435
90.0     420
