?
5.0      893
5.02     893
5.04     1161
5.06     1059
5.08     1091
5.1      1106
5.12     1105
5.14     1131
5.16     1132
5.18     1148
5.2      1164
5.22     1156
5.24     1170
5.26     1143
5.28     1158
5.3      1138
5.32     1130
5.34     1117
5.36     1093
5.38     1063
5.4      1059
5.42     1058
5.44     1070
5.46     1107
5.48     1105
5.5      1094
5.52     1120
5.54     1089
5.56     1091
5.58     1050
5.6      1031
5.62     1003
5.64     1019
5.66     1028
5.68     999
5.7      1002
5.72     1041
5.74     1037
5.76     1048
5.78     1025
5.8      1028
5.82     989
5.84     998
5.86     979
5.88     916
5.9      966
5.92     1010
5.94     989
5.96     992
5.98     1000
6.0      982
6.02     978
6.04     961
6.06     941
6.08     899
6.1      963
6.12     995
6.14     957
6.16     978
6.18     995
6.2      987
6.22     991
6.24     965
6.26     960
6.28     960
6.3      988
6.32     986
6.34     952
6.36     963
6.38     993
6.4      979
6.42     987
6.44     998
6.46     986
6.48     960
6.5      964
6.52     954
6.54     970
6.56     984
6.58     958
6.6      945
6.62     955
6.64     982
6.66     959
6.68     981
6.7      984
6.72     999
6.74     1016
6.76     1005
6.78     921
6.8      922
6.82     905
6.84     913
6.86     890
6.88     930
6.9      895
6.92     938
6.94     939
6.96     987
6.98     971
7.0      1039
7.02     1004
7.04     1017
7.06     987
7.08     975
7.1      921
7.12     919
7.14     906
7.16     950
7.18     939
7.2      968
7.22     959
7.24     999
7.26     979
7.28     957
7.3      908
7.32     908
7.34     919
7.36     909
7.38     907
7.4      921
7.42     967
7.44     954
7.46     986
7.48     982
7.5      961
7.52     960
7.54     993
7.56     970
7.58     967
7.6      982
7.62     970
7.64     986
7.66     985
7.68     952
7.7      969
7.72     936
7.74     956
7.76     921
7.78     959
7.8      959
7.82     971
7.84     982
7.86     955
7.88     999
7.9      1050
7.92     999
7.94     1007
7.96     1042
7.98     1083
8.0      994
8.02     1045
8.04     967
8.06     1016
8.08     1001
8.1      960
8.12     933
8.14     917
8.16     959
8.18     1001
8.2      982
8.22     1034
8.24     1040
8.26     1092
8.28     1035
8.3      1055
8.32     1037
8.34     1023
8.36     1038
8.38     1065
8.4      1073
8.42     1034
8.44     1056
8.46     1045
8.48     1054
8.5      1057
8.52     1022
8.54     1035
8.56     1006
8.58     1063
8.6      1075
8.62     1054
8.64     1018
8.66     1082
8.68     1099
8.7      1075
8.72     1055
8.74     1055
8.76     997
8.78     1028
8.8      986
8.82     962
8.84     890
8.86     939
8.88     969
8.9      998
8.92     989
8.94     991
8.96     939
8.98     960
9.0      933
9.02     918
9.04     901
9.06     927
9.08     978
9.1      984
9.12     982
9.14     983
9.16     969
9.18     951
9.2      941
9.22     921
9.24     921
9.26     895
9.28     877
9.3      853
9.32     878
9.34     870
9.36     852
9.38     792
9.4      808
9.42     767
9.44     720
9.46     750
9.48     800
9.5      833
9.52     911
9.54     927
9.56     920
9.58     905
9.6      901
9.62     803
9.64     749
9.66     754
9.68     757
9.7      729
9.72     755
9.74     762
9.76     753
9.78     777
9.8      810
9.82     787
9.84     831
9.86     836
9.88     855
9.9      895
9.92     886
9.94     911
9.96     861
9.98     840
10.0     839
10.02    824
10.04    825
10.06    821
10.08    804
10.1     825
10.12    830
10.14    865
10.16    819
10.18    759
10.2     737
10.22    725
10.24    665
10.26    659
10.28    616
10.3     627
10.32    691
10.34    700
10.36    715
10.38    700
10.4     733
10.42    786
10.44    756
10.46    768
10.48    787
10.5     839
10.52    877
10.54    885
10.56    883
10.58    834
10.6     812
10.62    757
10.64    699
10.66    658
10.68    686
10.7     677
10.72    669
10.74    731
10.76    731
10.78    729
10.8     741
10.82    680
10.84    704
10.86    682
10.88    676
10.9     663
10.92    629
10.94    675
10.96    669
10.98    721
11.0     747
11.02    754
11.04    766
11.06    749
11.08    730
11.1     736
11.12    707
11.14    683
11.16    663
11.18    704
11.2     686
11.22    690
11.24    734
11.26    740
11.28    752
11.3     754
11.32    748
11.34    710
11.36    701
11.38    744
11.4     722
11.42    711
11.44    780
11.46    796
11.48    826
11.5     815
11.52    752
11.54    762
11.56    777
11.58    803
11.6     778
11.62    746
11.64    812
11.66    821
11.68    822
11.7     780
11.72    717
11.74    789
11.76    808
11.78    818
11.8     817
11.82    803
11.84    815
11.86    757
11.88    740
11.9     735
11.92    717
11.94    786
11.96    798
11.98    803
12.0     786
12.02    790
12.04    773
12.06    755
12.08    784
12.1     763
12.12    781
12.14    825
12.16    783
12.18    757
12.2     782
12.22    785
12.24    730
12.26    777
12.28    802
12.3     751
12.32    794
12.34    850
12.36    878
12.38    891
12.4     947
12.42    900
12.44    886
12.46    907
12.48    844
12.5     815
12.52    818
12.54    835
12.56    817
12.58    824
12.6     842
12.62    790
12.64    796
12.66    817
12.68    807
12.7     879
12.72    897
12.74    887
12.76    882
12.78    896
12.8     854
12.82    794
12.84    781
12.86    799
12.88    727
12.9     750
12.92    835
12.94    837
12.96    840
12.98    905
13.0     914
13.02    897
13.04    871
13.06    875
13.08    821
13.1     840
13.12    883
13.14    868
13.16    887
13.18    926
13.2     906
13.22    908
13.24    895
13.26    880
13.28    820
13.3     835
13.32    875
13.34    853
13.36    879
13.38    871
13.4     858
13.42    862
13.44    861
13.46    870
13.48    830
13.5     876
13.52    858
13.54    844
13.56    869
13.58    806
13.6     774
13.62    872
13.64    892
13.66    857
13.68    856
13.7     890
13.72    884
13.74    931
13.76    913
13.78    927
13.8     956
13.82    1026
13.84    945
13.86    887
13.88    932
13.9     910
13.92    878
13.94    862
13.96    928
13.98    971
14.0     986
14.02    968
14.04    918
14.06    921
14.08    957
14.1     892
14.12    881
14.14    883
14.16    977
14.18    1007
14.2     1013
14.22    955
14.24    967
14.26    1017
14.28    948
14.3     871
14.32    899
14.34    825
14.36    798
14.38    854
14.4     910
14.42    899
14.44    999
14.46    1042
14.48    995
14.5     1000
14.52    1000
14.54    931
14.56    906
14.58    983
14.6     980
14.62    913
14.64    970
14.66    1014
14.68    971
14.7     967
14.72    976
14.74    984
14.76    985
14.78    1032
14.8     990
14.82    985
14.84    1033
14.86    1062
14.88    1013
14.9     1101
14.92    1154
14.94    1141
14.96    1119
14.98    1147
15.0     1105
15.02    1032
15.04    1017
15.06    1007
15.08    1018
15.1     1062
15.12    1044
15.14    1012
15.16    966
15.18    957
15.2     936
15.22    896
15.24    906
15.26    918
15.28    960
15.3     973
15.32    1005
15.34    1074
15.36    1078
15.38    1054
15.4     1044
15.42    1052
15.44    1023
15.46    965
15.48    934
15.5     941
15.52    1029
15.54    1014
15.56    985
15.58    1001
15.6     1078
15.62    1116
15.64    1053
15.66    1062
15.68    1097
15.7     1119
15.72    1141
15.74    1041
15.76    1033
15.78    1130
15.8     1224
15.82    1221
15.84    1232
15.86    1379
15.88    1432
15.9     1396
15.92    1419
15.94    1442
15.96    1501
15.98    1575
16.0     1658
16.02    1712
16.04    1850
16.06    2054
16.08    2088
16.1     2050
16.12    2176
16.14    2396
16.16    2480
16.18    2637
16.2     2865
16.22    3065
16.24    3334
16.26    3723
16.28    4108
16.3     4535
16.32    5213
16.34    6060
16.36    6972
16.38    8217
16.4     9664
16.42    11410
16.44    13640
16.46    16562
16.48    20364
16.5     25198
16.52    31306
16.54    38260
16.56    44571
16.58    48411
16.6     48686
16.62    45368
16.64    38943
16.66    30547
16.68    21730
16.7     13925
16.72    8576
16.74    5778
16.76    4506
16.78    3828
16.8     3399
16.82    3096
16.84    2751
16.86    2456
16.88    2292
16.9     2102
16.92    2031
16.94    1943
16.96    1829
16.98    1707
17.0     1636
17.02    1560
17.04    1491
17.06    1437
17.08    1462
17.1     1435
17.12    1386
17.14    1357
17.16    1353
17.18    1311
17.2     1270
17.22    1230
17.24    1221
17.26    1128
17.28    1114
17.3     1065
17.32    1039
17.34    995
17.36    1035
17.38    1028
17.4     1007
17.42    962
17.44    909
17.46    865
17.48    908
17.5     869
17.52    858
17.54    822
17.56    882
17.58    871
17.6     846
17.62    821
17.64    816
17.66    852
17.68    825
17.7     778
17.72    732
17.74    659
17.76    662
17.78    722
17.8     770
17.82    781
17.84    774
17.86    841
17.88    814
17.9     760
17.92    746
17.94    717
17.96    748
17.98    821
18.0     832
18.02    802
18.04    847
18.06    901
18.08    855
18.1     738
18.12    714
18.14    706
18.16    707
18.18    684
18.2     675
18.22    732
18.24    770
18.26    734
18.28    684
18.3     634
18.32    651
18.34    684
18.36    681
18.38    677
18.4     694
18.42    728
18.44    688
18.46    653
18.48    637
18.5     648
18.52    646
18.54    605
18.56    606
18.58    601
18.6     615
18.62    631
18.64    682
18.66    705
18.68    714
18.7     726
18.72    719
18.74    678
18.76    713
18.78    682
18.8     660
18.82    655
18.84    723
18.86    690
18.88    676
18.9     701
18.92    750
18.94    773
18.96    834
18.98    824
19.0     747
19.02    716
19.04    727
19.06    713
19.08    706
19.1     680
19.12    728
19.14    725
19.16    764
19.18    791
19.2     724
19.22    694
19.24    693
19.26    744
19.28    732
19.3     760
19.32    816
19.34    880
19.36    932
19.38    893
19.4     829
19.42    777
19.44    795
19.46    768
19.48    764
19.5     782
19.52    793
19.54    790
19.56    761
19.58    697
19.6     685
19.62    698
19.64    802
19.66    823
19.68    830
19.7     752
19.72    751
19.74    711
19.76    736
19.78    742
19.8     732
19.82    791
19.84    877
19.86    901
19.88    871
19.9     759
19.92    813
19.94    808
19.96    820
19.98    825
20.0     835
20.02    870
20.04    845
20.06    793
20.08    756
20.1     713
20.12    786
20.14    728
20.16    770
20.18    822
20.2     851
20.22    813
20.24    744
20.26    710
20.28    676
20.3     744
20.32    728
20.34    748
20.36    772
20.38    744
20.4     739
20.42    699
20.44    705
20.46    753
20.48    722
20.5     791
20.52    801
20.54    816
20.56    752
20.58    784
20.6     824
20.62    868
20.64    894
20.66    942
20.68    901
20.7     882
20.72    852
20.74    792
20.76    785
20.78    841
20.8     819
20.82    859
20.84    876
20.86    909
20.88    885
20.9     831
20.92    812
20.94    837
20.96    873
20.98    855
21.0     774
21.02    758
21.04    857
21.06    893
21.08    924
21.1     902
21.12    921
21.14    912
21.16    899
21.18    813
21.2     758
21.22    792
21.24    870
21.26    804
21.28    844
21.3     807
21.32    837
21.34    771
21.36    782
21.38    752
21.4     830
21.42    902
21.44    862
21.46    788
21.48    814
21.5     832
21.52    917
21.54    917
21.56    923
21.58    844
21.6     883
21.62    910
21.64    896
21.66    846
21.68    838
21.7     937
21.72    1022
21.74    1057
21.76    1023
21.78    933
21.8     873
21.82    858
21.84    825
21.86    743
21.88    716
21.9     705
21.92    765
21.94    884
21.96    952
21.98    920
22.0     922
22.02    942
22.04    975
22.06    948
22.08    933
22.1     862
22.12    903
22.14    933
22.16    853
22.18    801
22.2     833
22.22    818
22.24    847
22.26    841
22.28    914
22.3     917
22.32    902
22.34    864
22.36    840
22.38    920
22.4     984
22.42    1016
22.44    1047
22.46    1019
22.48    1000
22.5     973
22.52    950
22.54    962
22.56    927
22.58    884
22.6     835
22.62    819
22.64    812
22.66    784
22.68    818
22.7     869
22.72    933
22.74    1016
22.76    995
22.78    927
22.8     825
22.82    759
22.84    726
22.86    700
22.88    734
22.9     724
22.92    789
22.94    830
22.96    850
22.98    819
23.0     771
23.02    718
23.04    695
23.06    714
23.08    820
23.1     862
23.12    923
23.14    920
23.16    946
23.18    919
23.2     892
23.22    830
23.24    804
23.26    771
23.28    828
23.3     850
23.32    846
23.34    760
23.36    713
23.38    703
23.4     788
23.42    855
23.44    878
23.46    831
23.48    887
23.5     925
23.52    882
23.54    746
23.56    663
23.58    666
23.6     726
23.62    770
23.64    729
23.66    707
23.68    682
23.7     744
23.72    780
23.74    790
23.76    780
23.78    762
23.8     733
23.82    812
23.84    811
23.86    839
23.88    776
23.9     811
23.92    771
23.94    790
23.96    782
23.98    750
24.0     731
24.02    786
24.04    825
24.06    787
24.08    759
24.1     763
24.12    784
24.14    835
24.16    822
24.18    776
24.2     751
24.22    779
24.24    845
24.26    785
24.28    824
24.3     822
24.32    815
24.34    741
24.36    680
24.38    676
24.4     716
24.42    739
24.44    741
24.46    720
24.48    733
24.5     748
24.52    736
24.54    728
24.56    766
24.58    758
24.6     697
24.62    705
24.64    709
24.66    781
24.68    795
24.7     869
24.72    894
24.74    902
24.76    835
24.78    710
24.8     699
24.82    756
24.84    828
24.86    843
24.88    847
24.9     847
24.92    834
24.94    811
24.96    738
24.98    732
25.0     734
25.02    755
25.04    780
25.06    785
25.08    822
25.1     821
25.12    784
25.14    780
25.16    740
25.18    799
25.2     754
25.22    761
25.24    698
25.26    710
25.28    677
25.3     687
25.32    649
25.34    662
25.36    685
25.38    770
25.4     772
25.42    765
25.44    761
25.46    734
25.48    674
25.5     617
25.52    649
25.54    622
25.56    663
25.58    673
25.6     672
25.62    655
25.64    623
25.66    551
25.68    487
25.7     503
25.72    566
25.74    615
25.76    721
25.78    762
25.8     810
25.82    757
25.84    687
25.86    636
25.88    628
25.9     618
25.92    603
25.94    674
25.96    745
25.98    850
26.0     871
26.02    829
26.04    797
26.06    739
26.08    701
26.1     646
26.12    638
26.14    642
26.16    689
26.18    682
26.2     605
26.22    638
26.24    667
26.26    714
26.28    758
26.3     786
26.32    743
26.34    661
26.36    596
26.38    503
26.4     459
26.42    465
26.44    507
26.46    602
26.48    678
26.5     692
26.52    619
26.54    583
26.56    611
26.58    655
26.6     660
26.62    692
26.64    719
26.66    741
26.68    772
26.7     727
26.72    688
26.74    664
26.76    628
26.78    577
26.8     569
26.82    632
26.84    656
26.86    681
26.88    727
26.9     693
26.92    660
26.94    639
26.96    598
26.98    529
27.0     490
27.02    502
27.04    576
27.06    583
27.08    615
27.1     576
27.12    540
27.14    555
27.16    556
27.18    525
27.2     532
27.22    623
27.24    688
27.26    699
27.28    715
27.3     696
27.32    674
27.34    675
27.36    593
27.38    547
27.4     506
27.42    531
27.44    558
27.46    628
27.48    690
27.5     726
27.52    734
27.54    714
27.56    568
27.58    495
27.6     441
27.62    452
27.64    515
27.66    563
27.68    628
27.7     667
27.72    640
27.74    650
27.76    611
27.78    657
27.8     695
27.82    668
27.84    691
27.86    600
27.88    569
27.9     549
27.92    438
27.94    438
27.96    477
27.98    562
28.0     568
28.02    553
28.04    578
28.06    570
28.08    607
28.1     564
28.12    437
28.14    408
28.16    454
28.18    488
28.2     522
28.22    542
28.24    584
28.26    651
28.28    641
28.3     558
28.32    448
28.34    431
28.36    411
28.38    420
28.4     482
28.42    498
28.44    607
28.46    704
28.48    724
28.5     693
28.52    633
28.54    572
28.56    505
28.58    515
28.6     545
28.62    564
28.64    643
28.66    654
28.68    673
28.7     613
28.72    568
28.74    499
28.76    546
28.78    622
28.8     623
28.82    594
28.84    524
28.86    435
28.88    425
28.9     399
28.92    479
28.94    513
28.96    570
28.98    595
29.0     568
29.02    605
29.04    575
29.06    538
29.08    554
29.1     560
29.12    649
29.14    702
29.16    714
29.18    728
29.2     713
29.22    636
29.24    527
29.26    547
29.28    542
29.3     511
29.32    514
29.34    535
29.36    553
29.38    545
29.4     509
29.42    430
29.44    481
29.46    594
29.48    585
29.5     557
29.52    511
29.54    473
29.56    454
29.58    419
29.6     441
29.62    490
29.64    557
29.66    582
29.68    524
29.7     511
29.72    533
29.74    487
29.76    456
29.78    461
29.8     426
29.82    463
29.84    530
29.86    568
29.88    550
29.9     603
29.92    597
29.94    554
29.96    550
29.98    552
30.0     523
30.02    542
30.04    522
30.06    511
30.08    498
30.1     513
30.12    527
30.14    508
30.16    583
30.18    632
30.2     663
30.22    632
30.24    549
30.26    602
30.28    585
30.3     548
30.32    631
30.34    636
30.36    723
30.38    734
30.4     699
30.42    591
30.44    477
30.46    478
30.48    441
30.5     460
30.52    538
30.54    559
30.56    500
30.58    456
30.6     413
30.62    343
30.64    360
30.66    372
30.68    421
30.7     495
30.72    536
30.74    502
30.76    445
30.78    409
30.8     384
30.82    366
30.84    377
30.86    370
30.88    400
30.9     437
30.92    470
30.94    377
30.96    392
30.98    409
31.0     396
31.02    401
31.04    419
31.06    465
31.08    469
31.1     511
31.12    525
31.14    454
31.16    457
31.18    461
31.2     458
31.22    468
31.24    451
31.26    417
31.28    376
31.3     430
31.32    451
31.34    483
31.36    511
31.38    537
31.4     614
31.42    641
31.44    637
31.46    592
31.48    508
31.5     483
31.52    426
31.54    462
31.56    496
31.58    562
31.6     601
31.62    570
31.64    590
31.66    547
31.68    510
31.7     463
31.72    419
31.74    463
31.76    486
31.78    545
31.8     541
31.82    478
31.84    485
31.86    424
31.88    372
31.9     346
31.92    344
31.94    394
31.96    492
31.98    585
32.0     623
32.02    562
32.04    534
32.06    449
32.08    387
32.1     413
32.12    401
32.14    476
32.16    569
32.18    598
32.2     620
32.22    613
32.24    607
32.26    619
32.28    599
32.3     614
32.32    619
32.34    641
32.36    624
32.38    585
32.4     598
32.42    611
32.44    615
32.46    641
32.48    614
32.5     599
32.52    587
32.54    541
32.56    518
32.58    479
32.6     430
32.62    422
32.64    425
32.66    445
32.68    543
32.7     585
32.72    633
32.74    672
32.76    699
32.78    674
32.8     651
32.82    651
32.84    699
32.86    707
32.88    748
32.9     745
32.92    663
32.94    640
32.96    534
32.98    465
33.0     499
33.02    516
33.04    631
33.06    652
33.08    649
33.1     662
33.12    597
33.14    635
33.16    627
33.18    688
33.2     783
33.22    827
33.24    909
33.26    889
33.28    848
33.3     889
33.32    917
33.34    1059
33.36    1227
33.38    1428
33.4     1678
33.42    1963
33.44    2303
33.46    2778
33.48    3579
33.5     4811
33.52    6474
33.54    8529
33.56    10625
33.58    12187
33.6     12995
33.62    12830
33.64    11705
33.66    9903
33.68    7735
33.7     5618
33.72    3888
33.74    2730
33.76    2070
33.78    1631
33.8     1478
33.82    1390
33.84    1350
33.86    1333
33.88    1240
33.9     1159
33.92    1027
33.94    955
33.96    901
33.98    890
34.0     916
34.02    903
34.04    889
34.06    789
34.08    742
34.1     751
34.12    750
34.14    767
34.16    795
34.18    763
34.2     748
34.22    735
34.24    664
34.26    613
34.28    687
34.3     702
34.32    708
34.34    663
34.36    629
34.38    596
34.4     636
34.42    653
34.44    618
34.46    615
34.48    621
34.5     558
34.52    539
34.54    538
34.56    530
34.58    602
34.6     651
34.62    627
34.64    612
34.66    647
34.68    655
34.7     642
34.72    614
34.74    541
34.76    478
34.78    462
34.8     504
34.82    564
34.84    703
34.86    884
34.88    962
34.9     1061
34.92    1082
34.94    1132
34.96    1342
34.98    1687
35.0     2338
35.02    3278
35.04    4876
35.06    7147
35.08    9689
35.1     11872
35.12    13244
35.14    13519
35.16    12680
35.18    10887
35.2     8465
35.22    5905
35.24    3901
35.26    2629
35.28    1885
35.3     1417
35.32    1203
35.34    1057
35.36    1048
35.38    1078
35.4     1049
35.42    1059
35.44    1082
35.46    1036
35.48    973
35.5     925
35.52    905
35.54    830
35.56    874
35.58    830
35.6     845
35.62    895
35.64    931
35.66    897
35.68    870
35.7     764
35.72    716
35.74    654
35.76    732
35.78    761
35.8     873
35.82    957
35.84    979
35.86    919
35.88    854
35.9     759
35.92    721
35.94    689
35.96    746
35.98    758
36.0     776
36.02    825
36.04    767
36.06    785
36.08    834
36.1     869
36.12    913
36.14    1057
36.16    1185
36.18    1274
36.2     1382
36.22    1537
36.24    1614
36.26    1798
36.28    2057
36.3     2415
36.32    2968
36.34    3867
36.36    5117
36.38    7093
36.4     10266
36.42    14629
36.44    19603
36.46    24051
36.48    26997
36.5     27623
36.52    26026
36.54    22389
36.56    17436
36.58    12210
36.6     7900
36.62    5012
36.64    3493
36.66    2671
36.68    2295
36.7     1981
36.72    1882
36.74    1691
36.76    1589
36.78    1409
36.8     1261
36.82    1131
36.84    1030
36.86    894
36.88    860
36.9     787
36.92    803
36.94    737
36.96    763
36.98    780
37.0     814
37.02    798
37.04    825
37.06    841
37.08    835
37.1     799
37.12    808
37.14    704
37.16    684
37.18    667
37.2     647
37.22    622
37.24    722
37.26    755
37.28    773
37.3     839
37.32    958
37.34    1064
37.36    1256
37.38    1329
37.4     1325
37.42    1214
37.44    1087
37.46    838
37.48    642
37.5     511
37.52    479
37.54    520
37.56    603
37.58    612
37.6     574
37.62    552
37.64    552
37.66    556
37.68    538
37.7     574
37.72    638
37.74    644
37.76    596
37.78    566
37.8     511
37.82    515
37.84    549
37.86    605
37.88    646
37.9     676
37.92    700
37.94    642
37.96    583
37.98    576
38.0     512
38.02    452
38.04    415
38.06    403
38.08    412
38.1     397
38.12    430
38.14    427
38.16    480
38.18    578
38.2     555
38.22    507
38.24    472
38.26    365
38.28    279
38.3     235
38.32    211
38.34    256
38.36    341
38.38    425
38.4     432
38.42    468
38.44    479
38.46    424
38.48    459
38.5     475
38.52    480
38.54    576
38.56    579
38.58    556
38.6     535
38.62    469
38.64    383
38.66    345
38.68    346
38.7     340
38.72    345
38.74    391
38.76    406
38.78    409
38.8     404
38.82    342
38.84    338
38.86    360
38.88    401
38.9     439
38.92    521
38.94    549
38.96    584
38.98    554
39.0     511
39.02    454
39.04    463
39.06    458
39.08    492
39.1     534
39.12    612
39.14    627
39.16    609
39.18    581
39.2     533
39.22    472
39.24    425
39.26    367
39.28    334
39.3     344
39.32    374
39.34    414
39.36    399
39.38    460
39.4     487
39.42    472
39.44    493
39.46    515
39.48    506
39.5     525
39.52    548
39.54    495
39.56    433
39.58    427
39.6     353
39.62    308
39.64    345
39.66    412
39.68    485
39.7     607
39.72    680
39.74    664
39.76    643
39.78    581
39.8     446
39.82    414
39.84    377
39.86    403
39.88    453
39.9     576
39.92    648
39.94    722
39.96    743
39.98    705
40.0     674
40.02    692
40.04    653
40.06    648
40.08    662
40.1     688
40.12    737
40.14    770
40.16    718
40.18    769
40.2     843
40.22    858
40.24    844
40.26    912
40.28    883
40.3     791
40.32    802
40.34    795
40.36    758
40.38    854
40.4     931
40.42    930
40.44    911
40.46    952
40.48    892
40.5     768
40.52    710
40.54    743
40.56    798
40.58    877
40.6     974
40.62    1001
40.64    1007
40.66    1016
40.68    1011
40.7     927
40.72    878
40.74    926
40.76    993
40.78    1027
40.8     1067
40.82    1028
40.84    1077
40.86    1120
40.88    1191
40.9     1316
40.92    1404
40.94    1450
40.96    1518
40.98    1581
41.0     1563
41.02    1468
41.04    1555
41.06    1630
41.08    1731
41.1     1957
41.12    2136
41.14    2270
41.16    2465
41.18    2687
41.2     2803
41.22    2994
41.24    3316
41.26    3780
41.28    4362
41.3     5199
41.32    6202
41.34    7351
41.36    8848
41.38    10748
41.4     13380
41.42    17310
41.44    23282
41.46    32554
41.48    46138
41.5     62936
41.52    79668
41.54    92296
41.56    98074
41.58    95811
41.6     85911
41.62    70401
41.64    52434
41.66    35649
41.68    23177
41.7     15360
41.72    10893
41.74    8104
41.76    6328
41.78    5179
41.8     4303
41.82    3805
41.84    3580
41.86    3345
41.88    3159
41.9     2963
41.92    2705
41.94    2389
41.96    2161
41.98    1945
42.0     1708
42.02    1588
42.04    1595
42.06    1586
42.08    1597
42.1     1563
42.12    1472
42.14    1401
42.16    1311
42.18    1203
42.2     1087
42.22    1131
42.24    1144
42.26    1177
42.28    1128
42.3     1077
42.32    999
42.34    1040
42.36    984
42.38    954
42.4     928
42.42    1005
42.44    1051
42.46    1050
42.48    1044
42.5     1048
42.52    1048
42.54    1051
42.56    1013
42.58    929
42.6     802
42.62    751
42.64    730
42.66    692
42.68    709
42.7     658
42.72    688
42.74    696
42.76    771
42.78    722
42.8     723
42.82    784
42.84    805
42.86    823
42.88    810
42.9     780
42.92    691
42.94    666
42.96    681
42.98    705
43.0     699
43.02    731
43.04    758
43.06    832
43.08    808
43.1     767
43.12    683
43.14    684
43.16    640
43.18    616
43.2     579
43.22    550
43.24    542
43.26    564
43.28    555
43.3     593
43.32    640
43.34    694
43.36    724
43.38    743
43.4     777
43.42    751
43.44    725
43.46    740
43.48    707
43.5     711
43.52    651
43.54    635
43.56    592
43.58    541
43.6     557
43.62    578
43.64    569
43.66    638
43.68    685
43.7     758
43.72    767
43.74    728
43.76    667
43.78    626
43.8     576
43.82    490
43.84    408
43.86    476
43.88    540
43.9     589
43.92    622
43.94    635
43.96    632
43.98    629
44.0     571
44.02    512
44.04    483
44.06    525
44.08    536
44.1     552
44.12    521
44.14    540
44.16    484
44.18    555
44.2     525
44.22    542
44.24    557
44.26    605
44.28    600
44.3     619
44.32    570
44.34    533
44.36    487
44.38    541
44.4     488
44.42    467
44.44    520
44.46    561
44.48    554
44.5     609
44.52    590
44.54    596
44.56    553
44.58    535
44.6     512
44.62    421
44.64    428
44.66    460
44.68    455
44.7     512
44.72    569
44.74    668
44.76    675
44.78    718
44.8     741
44.82    697
44.84    668
44.86    690
44.88    637
44.9     722
44.92    789
44.94    869
44.96    1052
44.98    1340
45.0     1699
45.02    1973
45.04    2188
45.06    2347
45.08    2256
45.1     2109
45.12    1795
45.14    1482
45.16    1219
45.18    990
45.2     888
45.22    759
45.24    708
45.26    633
45.28    513
45.3     484
45.32    452
45.34    544
45.36    579
45.38    635
45.4     741
45.42    747
45.44    766
45.46    723
45.48    670
45.5     610
45.52    536
45.54    537
45.56    477
45.58    467
45.6     482
45.62    473
45.64    485
45.66    493
45.68    483
45.7     481
45.72    457
45.74    456
45.76    465
45.78    459
45.8     479
45.82    479
45.84    462
45.86    504
45.88    486
45.9     470
45.92    449
45.94    479
45.96    519
45.98    453
46.0     411
46.02    403
46.04    403
46.06    421
46.08    352
46.1     429
46.12    463
46.14    498
46.16    565
46.18    525
46.2     509
46.22    399
46.24    380
46.26    340
46.28    332
46.3     410
46.32    394
46.34    478
46.36    523
46.38    546
46.4     507
46.42    421
46.44    466
46.46    433
46.48    485
46.5     538
46.52    641
46.54    720
46.56    699
46.58    708
46.6     620
46.62    521
46.64    417
46.66    280
46.68    297
46.7     341
46.72    454
46.74    491
46.76    536
46.78    580
46.8     535
46.82    533
46.84    483
46.86    406
46.88    466
46.9     470
46.92    553
46.94    593
46.96    603
46.98    577
47.0     488
47.02    471
47.04    330
47.06    242
47.08    306
47.1     348
47.12    390
47.14    489
47.16    536
47.18    562
47.2     512
47.22    459
47.24    444
47.26    442
47.28    472
47.3     498
47.32    505
47.34    576
47.36    572
47.38    611
47.4     554
47.42    544
47.44    525
47.46    450
47.48    469
47.5     514
47.52    493
47.54    465
47.56    502
47.58    528
47.6     483
47.62    455
47.64    381
47.66    370
47.68    444
47.7     473
47.72    432
47.74    461
47.76    496
47.78    490
47.8     417
47.82    397
47.84    412
47.86    376
47.88    438
47.9     495
47.92    583
47.94    661
47.96    658
47.98    644
48.0     603
48.02    558
48.04    527
48.06    428
48.08    427
48.1     453
48.12    481
48.14    517
48.16    529
48.18    550
48.2     589
48.22    596
48.24    589
48.26    506
48.28    453
48.3     468
48.32    429
48.34    403
48.36    380
48.38    391
48.4     434
48.42    481
48.44    481
48.46    432
48.48    457
48.5     476
48.52    469
48.54    449
48.56    475
48.58    508
48.6     496
48.62    510
48.64    494
48.66    434
48.68    424
48.7     400
48.72    392
48.74    417
48.76    433
48.78    452
48.8     437
48.82    421
48.84    399
48.86    355
48.88    365
48.9     393
48.92    422
48.94    459
48.96    534
48.98    551
49.0     517
49.02    476
49.04    472
49.06    417
49.08    447
49.1     516
49.12    531
49.14    554
49.16    673
49.18    620
49.2     567
49.22    483
49.24    392
49.26    324
49.28    321
49.3     346
49.32    331
49.34    391
49.36    501
49.38    500
49.4     509
49.42    457
49.44    464
49.46    460
49.48    454
49.5     466
49.52    494
49.54    501
49.56    495
49.58    490
49.6     451
49.62    438
49.64    428
49.66    381
49.68    372
49.7     459
49.72    491
49.74    445
49.76    384
49.78    385
49.8     381
49.82    340
49.84    274
49.86    249
49.88    288
49.9     370
49.92    343
49.94    307
49.96    325
49.98    419
50.0     500
50.02    458
50.04    471
50.06    514
50.08    529
50.1     482
50.12    390
50.14    365
50.16    359
50.18    397
50.2     399
50.22    387
50.24    470
50.26    515
50.28    523
50.3     516
50.32    456
50.34    413
50.36    352
50.38    331
50.4     295
50.42    328
50.44    404
50.46    469
50.48    474
50.5     501
50.52    467
50.54    457
50.56    410
50.58    374
50.6     361
50.62    370
50.64    405
50.66    482
50.68    413
50.7     440
50.72    488
50.74    499
50.76    444
50.78    393
50.8     341
50.82    283
50.84    275
50.86    310
50.88    269
50.9     323
50.92    390
50.94    471
50.96    485
50.98    501
51.0     528
51.02    551
51.04    504
51.06    513
51.08    421
51.1     379
51.12    412
51.14    427
51.16    388
51.18    397
51.2     401
51.22    385
51.24    317
51.26    339
51.28    334
51.3     416
51.32    508
51.34    537
51.36    586
51.38    637
51.4     621
51.42    583
51.44    515
51.46    509
51.48    453
51.5     422
51.52    394
51.54    376
51.56    370
51.58    370
51.6     361
51.62    369
51.64    382
51.66    421
51.68    398
51.7     441
51.72    466
51.74    504
51.76    509
51.78    523
51.8     541
51.82    576
51.84    544
51.86    550
51.88    468
51.9     449
51.92    425
51.94    397
51.96    370
51.98    393
52.0     400
52.02    441
52.04    478
52.06    536
52.08    508
52.1     540
52.12    535
52.14    536
52.16    518
52.18    504
52.2     509
52.22    571
52.24    610
52.26    606
52.28    651
52.3     690
52.32    725
52.34    702
52.36    643
52.38    595
52.4     500
52.42    417
52.44    307
52.46    258
52.48    264
52.5     296
52.52    387
52.54    470
52.56    597
52.58    633
52.6     598
52.62    617
52.64    612
52.66    509
52.68    420
52.7     393
52.72    441
52.74    484
52.76    516
52.78    519
52.8     564
52.82    569
52.84    592
52.86    520
52.88    542
52.9     533
52.92    585
52.94    623
52.96    650
52.98    667
53.0     733
53.02    755
53.04    773
53.06    758
53.08    781
53.1     780
53.12    890
53.14    887
53.16    854
53.18    912
53.2     1065
53.22    1166
53.24    1217
53.26    1275
53.28    1368
53.3     1545
53.32    1744
53.34    1913
53.36    2228
53.38    2842
53.4     3694
53.42    4787
53.44    5901
53.46    6946
53.48    7701
53.5     8036
53.52    7780
53.54    7047
53.56    6023
53.58    4906
53.6     3873
53.62    3028
53.64    2367
53.66    1938
53.68    1645
53.7     1435
53.72    1204
53.74    1025
53.76    930
53.78    837
53.8     769
53.82    708
53.84    729
53.86    783
53.88    830
53.9     836
53.92    870
53.94    863
53.96    771
53.98    704
54.0     537
54.02    427
54.04    389
54.06    350
54.08    318
54.1     405
54.12    514
54.14    610
54.16    604
54.18    609
54.2     512
54.22    509
54.24    451
54.26    438
54.28    415
54.3     490
54.32    501
54.34    568
54.36    571
54.38    589
54.4     585
54.42    592
54.44    541
54.46    502
54.48    431
54.5     441
54.52    409
54.54    433
54.56    465
54.58    428
54.6     378
54.62    355
54.64    303
54.66    300
54.68    318
54.7     398
54.72    474
54.74    600
54.76    701
54.78    670
54.8     654
54.82    651
54.84    602
54.86    569
54.88    486
54.9     484
54.92    446
54.94    437
54.96    383
54.98    297
55.0     311
55.02    359
55.04    377
55.06    380
55.08    388
55.1     462
55.12    504
55.14    543
55.16    544
55.18    499
55.2     511
55.22    560
55.24    538
55.26    482
55.28    457
55.3     446
55.32    475
55.34    538
55.36    506
55.38    430
55.4     467
55.42    486
55.44    481
55.46    442
55.48    391
55.5     366
55.52    430
55.54    474
55.56    488
55.58    506
55.6     576
55.62    552
55.64    548
55.66    463
55.68    435
55.7     408
55.72    366
55.74    376
55.76    452
55.78    507
55.8     554
55.82    498
55.84    442
55.86    421
55.88    438
55.9     331
55.92    210
55.94    255
55.96    314
55.98    452
56.0     491
56.02    478
56.04    445
56.06    519
56.08    554
56.1     528
56.12    467
56.14    494
56.16    509
56.18    560
56.2     529
56.22    439
56.24    328
56.26    297
56.28    330
56.3     297
56.32    342
56.34    445
56.36    551
56.38    639
56.4     766
56.42    748
56.44    681
56.46    583
56.48    504
56.5     348
56.52    343
56.54    367
56.56    302
56.58    339
56.6     378
56.62    406
56.64    506
56.66    567
56.68    556
56.7     588
56.72    720
56.74    785
56.76    723
56.78    702
56.8     586
56.82    557
56.84    565
56.86    513
56.88    440
56.9     427
56.92    465
56.94    524
56.96    583
56.98    589
57.0     578
57.02    570
57.04    562
57.06    538
57.08    473
57.1     424
57.12    447
57.14    501
57.16    538
57.18    511
57.2     549
57.22    519
57.24    505
57.26    516
57.28    470
57.3     518
57.32    595
57.34    647
57.36    693
57.38    714
57.4     756
57.42    694
57.44    692
57.46    687
57.48    604
57.5     620
57.52    575
57.54    583
57.56    600
57.58    652
57.6     650
57.62    674
57.64    751
57.66    722
57.68    776
57.7     823
57.72    818
57.74    890
57.76    907
57.78    940
57.8     881
57.82    908
57.84    912
57.86    911
57.88    1017
57.9     1072
57.92    1240
57.94    1426
57.96    1578
57.98    1757
58.0     1856
58.02    1952
58.04    2077
58.06    2236
58.08    2407
58.1     2690
58.12    3143
58.14    3721
58.16    4575
58.18    5873
58.2     7600
58.22    9759
58.24    12327
58.26    14968
58.28    17217
58.3     18675
58.32    18926
58.34    17958
58.36    15990
58.38    13539
58.4     10900
58.42    8498
58.44    6550
58.46    5088
58.48    4109
58.5     3389
58.52    2857
58.54    2384
58.56    2050
58.58    1825
58.6     1636
58.62    1538
58.64    1416
58.66    1319
58.68    1254
58.7     1188
58.72    1164
58.74    1131
58.76    1121
58.78    1006
58.8     949
58.82    867
58.84    822
58.86    756
58.88    701
58.9     577
58.92    522
58.94    585
58.96    552
58.98    582
59.0     627
59.02    646
59.04    689
59.06    742
59.08    755
59.1     631
59.12    702
59.14    727
59.16    678
59.18    748
59.2     707
59.22    668
59.24    655
59.26    628
59.28    531
59.3     420
59.32    434
59.34    315
59.36    275
59.38    313
59.4     272
59.42    344
59.44    463
59.46    496
59.48    548
59.5     632
59.52    700
59.54    678
59.56    692
59.58    605
59.6     487
59.62    511
59.64    511
59.66    434
59.68    430
59.7     452
59.72    458
59.74    455
59.76    478
59.78    433
59.8     410
59.82    461
59.84    614
59.86    653
59.88    714
59.9     715
59.92    645
59.94    576
59.96    552
59.98    455
60.0     293
60.02    209
60.04    273
60.06    281
60.08    374
60.1     402
60.12    421
60.14    482
60.16    549
60.18    543
60.2     520
60.22    490
60.24    529
60.26    558
60.28    562
60.3     543
60.32    526
60.34    465
60.36    438
60.38    408
60.4     363
60.42    301
60.44    325
60.46    375
60.48    388
60.5     453
60.52    511
60.54    540
60.56    588
60.58    590
60.6     551
60.62    504
60.64    476
60.66    489
60.68    419
60.7     389
60.72    421
60.74    480
60.76    503
60.78    498
60.8     532
60.82    549
60.84    594
60.86    620
60.88    592
60.9     593
60.92    592
60.94    613
60.96    618
60.98    624
61.0     612
61.02    501
61.04    424
61.06    335
61.08    286
61.1     287
61.12    307
61.14    343
61.16    397
61.18    443
61.2     474
61.22    476
61.24    522
61.26    529
61.28    532
61.3     515
61.32    499
61.34    465
61.36    375
61.38    345
61.4     345
61.42    379
61.44    431
61.46    508
61.48    547
61.5     578
61.52    640
61.54    679
61.56    705
61.58    727
61.6     742
61.62    752
61.64    674
61.66    650
61.68    612
61.7     603
61.72    550
61.74    544
61.76    669
61.78    812
61.8     930
61.82    1068
61.84    1103
61.86    1227
61.88    1377
61.9     1512
61.92    1648
61.94    1935
61.96    2342
61.98    3040
62.0     4002
62.02    5446
62.04    7443
62.06    10193
62.08    13441
62.1     16640
62.12    19322
62.14    20941
62.16    21204
62.18    20243
62.2     18097
62.22    15201
62.24    12114
62.26    9305
62.28    7065
62.3     5317
62.32    4044
62.34    3050
62.36    2357
62.38    1905
62.4     1583
62.42    1372
62.44    1134
62.46    938
62.48    882
62.5     845
62.52    875
62.54    907
62.56    918
62.58    920
62.6     897
62.62    882
62.64    766
62.66    740
62.68    676
62.7     588
62.72    561
62.74    483
62.76    456
62.78    513
62.8     514
62.82    600
62.84    619
62.86    721
62.88    696
62.9     651
62.92    585
62.94    445
62.96    428
62.98    397
63.0     307
63.02    347
63.04    341
63.06    414
63.08    437
63.1     477
63.12    518
63.14    539
63.16    521
63.18    538
63.2     465
63.22    470
63.24    457
63.26    472
63.28    444
63.3     427
63.32    409
63.34    424
63.36    360
63.38    415
63.4     402
63.42    407
63.44    393
63.46    474
63.48    523
63.5     527
63.52    487
63.54    566
63.56    586
63.58    602
63.6     596
63.62    513
63.64    455
63.66    427
63.68    396
63.7     346
63.72    321
63.74    368
63.76    395
63.78    409
63.8     425
63.82    498
63.84    546
63.86    492
63.88    489
63.9     532
63.92    532
63.94    524
63.96    537
63.98    566
64.0     508
64.02    536
64.04    542
64.06    508
64.08    458
64.1     432
64.12    455
64.14    467
64.16    496
64.18    527
64.2     462
64.22    447
64.24    456
64.26    566
64.28    539
64.3     514
64.32    579
64.34    563
64.36    584
64.38    609
64.4     597
64.42    658
64.44    648
64.46    780
64.48    781
64.5     739
64.52    757
64.54    766
64.56    835
64.58    826
64.6     854
64.62    1053
64.64    1110
64.66    1302
64.68    1624
64.7     2040
64.72    2615
64.74    3323
64.76    4059
64.78    4712
64.8     5180
64.82    5445
64.84    5338
64.86    4965
64.88    4361
64.9     3675
64.92    2963
64.94    2346
64.96    1832
64.98    1451
65.0     1202
65.02    1052
65.04    979
65.06    932
65.08    893
65.1     880
65.12    843
65.14    830
65.16    777
65.18    671
65.2     597
65.22    557
65.24    443
65.26    395
65.28    408
65.3     320
65.32    356
65.34    423
65.36    480
65.38    505
65.4     517
65.42    642
65.44    611
65.46    591
65.48    599
65.5     508
65.52    488
65.54    463
65.56    435
65.58    435
65.6     427
65.62    436
65.64    435
65.66    432
65.68    468
65.7     499
65.72    467
65.74    498
65.76    451
65.78    473
65.8     470
65.82    424
65.84    435
65.86    384
65.88    344
65.9     382
65.92    341
65.94    386
65.96    340
65.98    361
66.0     375
66.02    378
66.04    413
66.06    371
66.08    375
66.1     529
66.12    541
66.14    551
66.16    531
66.18    512
66.2     452
66.22    432
66.24    402
66.26    331
66.28    314
66.3     336
66.32    304
66.34    298
66.36    284
66.38    275
66.4     300
66.42    377
66.44    368
66.46    317
66.48    357
66.5     385
66.52    400
66.54    398
66.56    323
66.58    353
66.6     403
66.62    390
66.64    387
66.66    380
66.68    456
66.7     502
66.72    499
66.74    508
66.76    483
66.78    455
66.8     433
66.82    367
66.84    362
66.86    366
66.88    384
66.9     383
66.92    404
66.94    434
66.96    498
66.98    481
67.0     513
67.02    524
67.04    486
67.06    492
67.08    414
67.1     356
67.12    334
67.14    354
67.16    375
67.18    391
67.2     384
67.22    392
67.24    376
67.26    372
67.28    382
67.3     399
67.32    413
67.34    441
67.36    474
67.38    497
67.4     483
67.42    447
67.44    449
67.46    486
67.48    517
67.5     493
67.52    465
67.54    396
67.56    355
67.58    269
67.6     245
67.62    214
67.64    284
67.66    361
67.68    418
67.7     473
67.72    497
67.74    495
67.76    483
67.78    429
67.8     418
67.82    390
67.84    300
67.86    212
67.88    197
67.9     224
67.92    226
67.94    275
67.96    322
67.98    384
68.0     437
68.02    463
68.04    429
68.06    441
68.08    480
68.1     492
68.12    523
68.14    505
68.16    493
68.18    497
68.2     401
68.22    395
68.24    417
68.26    425
68.28    464
68.3     486
68.32    503
68.34    448
68.36    429
68.38    383
68.4     342
68.42    361
68.44    374
68.46    389
68.48    437
68.5     477
68.52    529
68.54    596
68.56    661
68.58    701
68.6     749
68.62    762
68.64    699
68.66    662
68.68    594
68.7     590
68.72    579
68.74    547
68.76    518
68.78    582
68.8     678
68.82    829
68.84    1005
68.86    1321
68.88    1715
68.9     2165
68.92    2653
68.94    3194
68.96    3795
68.98    4420
69.0     4838
69.02    5048
69.04    5030
69.06    4736
69.08    4280
69.1     3651
69.12    3074
69.14    2517
69.16    2115
69.18    1806
69.2     1556
69.22    1409
69.24    1239
69.26    1083
69.28    1009
69.3     869
69.32    792
69.34    711
69.36    607
69.38    509
69.4     493
69.42    469
69.44    457
69.46    528
69.48    542
69.5     522
69.52    570
69.54    542
69.56    533
69.58    587
69.6     621
69.62    612
69.64    618
69.66    591
69.68    543
69.7     489
69.72    450
69.74    403
69.76    426
69.78    390
69.8     323
69.82    331
69.84    315
69.86    332
69.88    401
69.9     429
69.92    482
69.94    553
69.96    552
69.98    513
70.0     541
70.02    565
70.04    577
70.06    595
70.08    564
70.1     533
70.12    499
70.14    438
70.16    411
70.18    423
70.2     417
70.22    456
70.24    493
70.26    564
70.28    562
70.3     596
70.32    662
70.34    659
70.36    664
70.38    675
70.4     707
70.42    735
70.44    663
70.46    749
70.48    765
70.5     848
70.52    933
70.54    1124
70.56    1347
70.58    1684
70.6     2025
70.62    2208
70.64    2356
70.66    2429
70.68    2354
70.7     2187
70.72    1966
70.74    1773
70.76    1607
70.78    1430
70.8     1297
70.82    1122
70.84    977
70.86    863
70.88    772
70.9     671
70.92    596
70.94    536
70.96    503
70.98    450
71.0     468
71.02    432
71.04    383
71.06    421
71.08    402
71.1     409
71.12    371
71.14    345
71.16    340
71.18    416
71.2     493
71.22    559
71.24    544
71.26    558
71.28    593
71.3     587
71.32    549
71.34    450
71.36    456
71.38    484
71.4     444
71.42    376
71.44    319
71.46    325
71.48    313
71.5     293
71.52    312
71.54    280
71.56    351
71.58    401
71.6     392
71.62    420
71.64    595
71.66    627
71.68    606
71.7     597
71.72    585
71.74    577
71.76    528
71.78    466
71.8     443
71.82    455
71.84    538
71.86    502
71.88    504
71.9     484
71.92    488
71.94    514
71.96    448
71.98    426
72.0     441
72.02    469
72.04    513
72.06    556
72.08    547
72.1     562
72.12    606
72.14    682
72.16    697
72.18    766
72.2     822
72.22    910
72.24    946
72.26    912
72.28    891
72.3     957
72.32    1016
72.34    1126
72.36    1250
72.38    1503
72.4     1871
72.42    2329
72.44    2869
72.46    3527
72.48    4272
72.5     4987
72.52    5568
72.54    5930
72.56    6005
72.58    5820
72.6     5375
72.62    4748
72.64    4066
72.66    3473
72.68    2847
72.7     2384
72.72    2063
72.74    1763
72.76    1523
72.78    1313
72.8     1111
72.82    981
72.84    948
72.86    888
72.88    830
72.9     856
72.92    851
72.94    788
72.96    720
72.98    660
73.0     603
73.02    621
73.04    624
73.06    552
73.08    586
73.1     595
73.12    594
73.14    558
73.16    537
73.18    499
73.2     523
73.22    540
73.24    525
73.26    558
73.28    627
73.3     673
73.32    665
73.34    712
73.36    792
73.38    851
73.4     1051
73.42    1174
73.44    1311
73.46    1376
73.48    1367
73.5     1309
73.52    1168
73.54    1084
73.56    979
73.58    909
73.6     896
73.62    830
73.64    747
73.66    630
73.68    542
73.7     500
73.72    436
73.74    404
73.76    394
73.78    390
73.8     425
73.82    489
73.84    474
73.86    499
73.88    508
73.9     523
73.92    527
73.94    522
73.96    514
73.98    520
74.0     586
74.02    610
74.04    607
74.06    672
74.08    766
74.1     836
74.12    947
74.14    1054
74.16    1276
74.18    1559
74.2     1894
74.22    2211
74.24    2529
74.26    2764
74.28    2886
74.3     2858
74.32    2739
74.34    2549
74.36    2242
74.38    1954
74.4     1694
74.42    1524
74.44    1333
74.46    1135
74.48    1011
74.5     924
74.52    832
74.54    762
74.56    607
74.58    624
74.6     640
74.62    720
74.64    741
74.66    803
74.68    841
74.7     913
74.72    1024
74.74    1134
74.76    1252
74.78    1449
74.8     1642
74.82    1865
74.84    2046
74.86    2278
74.88    2443
74.9     2603
74.92    2667
74.94    2585
74.96    2356
74.98    2101
75.0     1836
75.02    1559
75.04    1315
75.06    1204
75.08    1062
75.1     906
75.12    803
75.14    691
75.16    619
75.18    626
75.2     646
75.22    647
75.24    696
75.26    727
75.28    648
75.3     570
75.32    544
75.34    510
75.36    532
75.38    569
75.4     565
75.42    545
75.44    515
75.46    494
75.48    435
75.5     425
75.52    482
75.54    468
75.56    501
75.58    466
75.6     432
75.62    390
75.64    383
75.66    400
75.68    382
75.7     419
75.72    474
75.74    473
75.76    497
75.78    458
75.8     499
75.82    513
75.84    569
75.86    522
75.88    511
75.9     424
75.92    370
75.94    371
75.96    383
75.98    400
76.0     444
76.02    476
76.04    461
76.06    450
76.08    471
76.1     364
76.12    415
76.14    425
76.16    449
76.18    434
76.2     455
76.22    414
76.24    367
76.26    419
76.28    412
76.3     390
76.32    424
76.34    399
76.36    408
76.38    387
76.4     428
76.42    383
76.44    434
76.46    496
76.48    465
76.5     410
76.52    387
76.54    375
76.56    395
76.58    401
76.6     475
76.62    485
76.64    518
76.66    484
76.68    391
76.7     323
76.72    328
76.74    335
76.76    359
76.78    348
76.8     383
76.82    370
76.84    340
76.86    304
76.88    332
76.9     408
76.92    509
76.94    614
76.96    634
76.98    605
77.0     566
77.02    504
77.04    523
77.06    496
77.08    531
77.1     559
77.12    592
77.14    629
77.16    623
77.18    625
77.2     623
77.22    653
77.24    765
77.26    817
77.28    906
77.3     1014
77.32    1088
77.34    1281
77.36    1469
77.38    1669
77.4     1945
77.42    2310
77.44    2844
77.46    3454
77.48    4165
77.5     4925
77.52    5623
77.54    6311
77.56    6727
77.58    6865
77.6     6722
77.62    6268
77.64    5680
77.66    4915
77.68    4186
77.7     3459
77.72    2853
77.74    2369
77.76    2030
77.78    1737
77.8     1422
77.82    1138
77.84    1000
77.86    869
77.88    775
77.9     741
77.92    700
77.94    685
77.96    738
77.98    713
78.0     562
78.02    446
78.04    482
78.06    483
78.08    514
78.1     601
78.12    617
78.14    664
78.16    745
78.18    687
78.2     497
78.22    381
78.24    368
78.26    356
78.28    360
78.3     358
78.32    395
78.34    434
78.36    490
78.38    430
78.4     322
78.42    262
78.44    285
78.46    297
78.48    338
78.5     350
78.52    364
78.54    430
78.56    469
78.58    441
78.6     366
78.62    336
78.64    407
78.66    422
78.68    447
78.7     409
78.72    371
78.74    361
78.76    364
78.78    275
78.8     182
78.82    180
78.84    253
78.86    313
78.88    385
78.9     472
78.92    562
78.94    621
78.96    685
78.98    648
79.0     580
79.02    563
79.04    516
79.06    455
79.08    391
79.1     348
79.12    371
79.14    351
79.16    345
79.18    326
79.2     281
79.22    269
79.24    228
79.26    164
79.28    153
79.3     171
79.32    217
79.34    229
79.36    264
79.38    235
79.4     233
79.42    252
79.44    288
79.46    240
79.48    293
79.5     328
79.52    396
79.54    457
79.56    511
79.58    489
79.6     538
79.62    563
79.64    562
79.66    489
79.68    486
79.7     479
79.72    453
79.74    401
79.76    357
79.78    297
79.8     273
79.82    249
79.84    261
79.86    354
79.88    441
79.9     537
79.92    595
79.94    575
79.96    603
79.98    602
80.0     580
80.02    524
80.04    505
80.06    575
80.08    595
80.1     602
80.12    588
80.14    544
80.16    601
80.18    680
80.2     673
80.22    597
80.24    554
80.26    552
80.28    551
80.3     482
80.32    405
80.34    363
80.36    366
80.38    377
80.4     338
80.42    236
80.44    210
80.46    277
80.48    370
80.5     377
80.52    399
80.54    429
80.56    467
80.58    436
80.6     386
80.62    284
80.64    294
80.66    332
80.68    403
80.7     378
80.72    391
80.74    413
80.76    393
80.78    316
80.8     254
80.82    256
80.84    268
80.86    337
80.88    367
80.9     348
80.92    307
80.94    364
80.96    365
80.98    353
81.0     383
81.02    390
81.04    442
81.06    460
81.08    414
81.1     372
81.12    309
81.14    351
81.16    397
81.18    424
81.2     435
81.22    429
81.24    438
81.26    420
81.28    383
81.3     355
81.32    358
81.34    349
81.36    388
81.38    398
81.4     353
81.42    309
81.44    314
81.46    338
81.48    340
81.5     341
81.52    330
81.54    325
81.56    322
81.58    328
81.6     308
81.62    305
81.64    372
81.66    379
81.68    333
81.7     304
81.72    273
81.74    300
81.76    323
81.78    335
81.8     318
81.82    312
81.84    326
81.86    314
81.88    214
81.9     244
81.92    307
81.94    432
81.96    501
81.98    495
82.0     466
82.02    435
82.04    395
82.06    378
82.08    308
82.1     322
82.12    408
82.14    456
82.16    326
82.18    269
82.2     206
82.22    182
82.24    187
82.26    286
82.28    346
82.3     379
82.32    432
82.34    396
82.36    269
82.38    272
82.4     271
82.42    281
82.44    306
82.46    364
82.48    387
82.5     393
82.52    314
82.54    266
82.56    276
82.58    348
82.6     398
82.62    384
82.64    446
82.66    455
82.68    522
82.7     538
82.72    453
82.74    389
82.76    371
82.78    340
82.8     306
82.82    259
82.84    316
82.86    310
82.88    401
82.9     485
82.92    493
82.94    434
82.96    413
82.98    390
83.0     378
83.02    339
83.04    345
83.06    291
83.08    271
83.1     277
83.12    238
83.14    190
83.16    166
83.18    181
83.2     203
83.22    234
83.24    276
83.26    274
83.28    314
83.3     361
83.32    363
83.34    393
83.36    396
83.38    392
83.4     434
83.42    462
83.44    435
83.46    393
83.48    406
83.5     363
83.52    313
83.54    331
83.56    323
83.58    332
83.6     380
83.62    416
83.64    401
83.66    374
83.68    395
83.7     395
83.72    454
83.74    494
83.76    472
83.78    430
83.8     388
83.82    381
83.84    326
83.86    227
83.88    225
83.9     261
83.92    286
83.94    257
83.96    248
83.98    257
84.0     303
84.02    355
84.04    398
84.06    412
84.08    471
84.1     507
84.12    506
84.14    521
84.16    519
84.18    481
84.2     508
84.22    455
84.24    479
84.26    439
84.28    404
84.3     339
84.32    275
84.34    230
84.36    183
84.38    146
84.4     213
84.42    281
84.44    389
84.46    378
84.48    469
84.5     420
84.52    425
84.54    459
84.56    459
84.58    446
84.6     503
84.62    535
84.64    555
84.66    525
84.68    506
84.7     386
84.72    438
84.74    455
84.76    481
84.78    461
84.8     484
84.82    488
84.84    508
84.86    478
84.88    426
84.9     403
84.92    427
84.94    440
84.96    475
84.98    441
85.0     425
85.02    418
85.04    351
85.06    302
85.08    305
85.1     337
85.12    308
85.14    329
85.16    359
85.18    378
85.2     354
85.22    378
85.24    332
85.26    302
85.28    316
85.3     377
85.32    329
85.34    351
85.36    301
85.38    292
85.4     273
85.42    283
85.44    254
85.46    217
85.48    231
85.5     300
85.52    311
85.54    392
85.56    405
85.58    476
85.6     491
85.62    501
85.64    527
85.66    434
85.68    426
85.7     415
85.72    384
85.74    365
85.76    356
85.78    338
85.8     300
85.82    257
85.84    281
85.86    267
85.88    319
85.9     294
85.92    300
85.94    317
85.96    378
85.98    390
86.0     383
86.02    403
86.04    409
86.06    442
86.08    436
86.1     429
86.12    415
86.14    433
86.16    482
86.18    485
86.2     482
86.22    499
86.24    474
86.26    503
86.28    554
86.3     672
86.32    750
86.34    876
86.36    978
86.38    1073
86.4     1202
86.42    1273
86.44    1330
86.46    1357
86.48    1374
86.5     1362
86.52    1230
86.54    1081
86.56    897
86.58    801
86.6     701
86.62    570
86.64    528
86.66    513
86.68    524
86.7     524
86.72    477
86.74    471
86.76    486
86.78    557
86.8     540
86.82    528
86.84    489
86.86    470
86.88    443
86.9     410
86.92    334
86.94    282
86.96    292
86.98    340
87.0     351
87.02    320
87.04    227
87.06    181
87.08    136
87.1     154
87.12    188
87.14    246
87.16    347
87.18    449
87.2     502
87.22    493
87.24    430
87.26    365
87.28    305
87.3     347
87.32    397
87.34    394
87.36    432
87.38    368
87.4     395
87.42    401
87.44    355
87.46    295
87.48    234
87.5     284
87.52    309
87.54    276
87.56    296
87.58    268
87.6     334
87.62    370
87.64    390
87.66    450
87.68    487
87.7     501
87.72    547
87.74    505
87.76    476
87.78    419
87.8     364
87.82    360
87.84    338
87.86    350
87.88    345
87.9     350
87.92    404
87.94    360
87.96    321
87.98    337
88.0     316
88.02    336
88.04    329
88.06    353
88.08    426
88.1     424
88.12    446
88.14    434
88.16    390
88.18    356
88.2     320
88.22    316
88.24    298
88.26    319
88.28    377
88.3     348
88.32    358
88.34    309
88.36    238
88.38    233
88.4     314
88.42    259
88.44    306
88.46    394
88.48    448
88.5     472
88.52    463
88.54    421
88.56    390
88.58    435
88.6     462
88.62    371
88.64    381
88.66    367
88.68    298
88.7     312
88.72    277
88.74    262
88.76    283
88.78    300
88.8     327
88.82    351
88.84    375
88.86    418
88.88    447
88.9     460
88.92    436
88.94    471
88.96    458
88.98    414
89.0     452
89.02    445
89.04    428
89.06    465
89.08    466
89.1     416
89.12    369
89.14    355
89.16    263
89.18    263
89.2     278
89.22    249
89.24    236
89.26    294
89.28    298
89.3     307
89.32    347
89.34    319
89.36    294
89.38    366
89.4     417
89.42    394
89.44    409
89.46    397
89.48    388
89.5     397
89.52    387
89.54    325
89.56    282
89.58    337
89.6     310
89.62    282
89.64    339
89.66    348
89.68    388
89.7     467
89.72    499
89.74    512
89.76    490
89.78    489
89.8     425
89.82    431
89.84    482
89.86    453
89.88    491
89.9     554
89.92    593
89.94    587
89.96    616
89.98    581
90.0     560
