?
5.0      809
5.02     809
5.04     1048
5.06     956
5.08     1002
5.1      975
5.12     1004
5.14     933
5.16     974
5.18     990
5.2      995
5.22     994
5.24     1017
5.26     992
5.28     997
5.3      991
5.32     971
5.34     934
5.36     943
5.38     933
5.4      916
5.42     964
5.44     1010
5.46     986
5.48     980
5.5      955
5.52     933
5.54     925
5.56     910
5.58     883
5.6      878
5.62     882
5.64     877
5.66     858
5.68     886
5.7      851
5.72     840
5.74     845
5.76     864
5.78     825
5.8      860
5.82     838
5.84     876
5.86     886
5.88     921
5.9      874
5.92     880
5.94     875
5.96     862
5.98     838
6.0      850
6.02     815
6.04     822
6.06     802
6.08     797
6.1      776
6.12     843
6.14     851
6.16     879
6.18     894
6.2      868
6.22     865
6.24     842
6.26     809
6.28     814
6.3      819
6.32     849
6.34     820
6.36     872
6.38     849
6.4      810
6.42     807
6.44     775
6.46     796
6.48     829
6.5      816
6.52     804
6.54     792
6.56     844
6.58     787
6.6      777
6.62     793
6.64     838
6.66     879
6.68     943
6.7      896
6.72     881
6.74     878
6.76     852
6.78     810
6.8      809
6.82     797
6.84     802
6.86     825
6.88     858
6.9      789
6.92     774
6.94     765
6.96     732
6.98     716
7.0      693
7.02     678
7.04     730
7.06     772
7.08     788
7.1      786
7.12     806
7.14     833
7.16     807
7.18     799
7.2      810
7.22     767
7.24     831
7.26     803
7.28     827
7.3      817
7.32     846
7.34     836
7.36     811
7.38     821
7.4      785
7.42     733
7.44     814
7.46     799
7.48     833
7.5      843
7.52     859
7.54     808
7.56     836
7.58     822
7.6      821
7.62     831
7.64     871
7.66     863
7.68     856
7.7      849
7.72     822
7.74     775
7.76     764
7.78     757
7.8      702
7.82     739
7.84     751
7.86     777
7.88     810
7.9      827
7.92     854
7.94     835
7.96     806
7.98     825
8.0      748
8.02     801
8.04     792
8.06     756
8.08     773
8.1      746
8.12     790
8.14     791
8.16     803
8.18     845
8.2      836
8.22     847
8.24     897
8.26     853
8.28     886
8.3      863
8.32     904
8.34     894
8.36     851
8.38     870
8.4      829
8.42     859
8.44     854
8.46     860
8.48     863
8.5      854
8.52     835
8.54     792
8.56     745
8.58     820
8.6      813
8.62     866
8.64     815
8.66     875
8.68     849
8.7      882
8.72     842
8.74     821
8.76     823
8.78     853
8.8      847
8.82     832
8.84     827
8.86     822
8.88     830
8.9      831
8.92     817
8.94     774
8.96     751
8.98     726
9.0      689
9.02     701
9.04     718
9.06     681
9.08     739
9.1      688
9.12     731
9.14     747
9.16     764
9.18     800
9.2      807
9.22     852
9.24     792
9.26     747
9.28     745
9.3      665
9.32     672
9.34     694
9.36     718
9.38     753
9.4      827
9.42     807
9.44     819
9.46     794
9.48     803
9.5      732
9.52     694
9.54     681
9.56     687
9.58     629
9.6      673
9.62     667
9.64     757
9.66     692
9.68     693
9.7      670
9.72     653
9.74     669
9.76     701
9.78     661
9.8      688
9.82     723
9.84     697
9.86     626
9.88     640
9.9      642
9.92     637
9.94     723
9.96     738
9.98     711
10.0     766
10.02    699
10.04    654
10.06    633
10.08    664
10.1     638
10.12    620
10.14    690
10.16    640
10.18    639
10.2     660
10.22    592
10.24    597
10.26    579
10.28    618
10.3     632
10.32    612
10.34    654
10.36    594
10.38    603
10.4     582
10.42    628
10.44    634
10.46    637
10.48    664
10.5     693
10.52    680
10.54    684
10.56    657
10.58    636
10.6     581
10.62    601
10.64    576
10.66    577
10.68    581
10.7     604
10.72    670
10.74    665
10.76    695
10.78    638
10.8     662
10.82    658
10.84    658
10.86    720
10.88    704
10.9     722
10.92    698
10.94    670
10.96    634
10.98    580
11.0     574
11.02    534
11.04    580
11.06    642
11.08    639
11.1     648
11.12    642
11.14    721
11.16    662
11.18    669
11.2     628
11.22    645
11.24    692
11.26    655
11.28    678
11.3     709
11.32    724
11.34    723
11.36    669
11.38    618
11.4     608
11.42    614
11.44    645
11.46    650
11.48    712
11.5     768
11.52    783
11.54    786
11.56    771
11.58    737
11.6     795
11.62    832
11.64    853
11.66    870
11.68    827
11.7     805
11.72    842
11.74    816
11.76    839
11.78    838
11.8     863
11.82    906
11.84    897
11.86    896
11.88    848
11.9     802
11.92    795
11.94    761
11.96    794
11.98    798
12.0     836
12.02    846
12.04    870
12.06    930
12.08    958
12.1     924
12.12    923
12.14    954
12.16    986
12.18    994
12.2     1005
12.22    988
12.24    969
12.26    963
12.28    944
12.3     903
12.32    924
12.34    896
12.36    890
12.38    892
12.4     910
12.42    944
12.44    910
12.46    897
12.48    944
12.5     981
12.52    958
12.54    914
12.56    939
12.58    953
12.6     956
12.62    1043
12.64    1023
12.66    985
12.68    1036
12.7     1043
12.72    921
12.74    889
12.76    940
12.78    921
12.8     961
12.82    1112
12.84    1068
12.86    1090
12.88    1150
12.9     1138
12.92    1044
12.94    1070
12.96    1145
12.98    1147
13.0     1158
13.02    1185
13.04    1153
13.06    1152
13.08    1104
13.1     1054
13.12    991
13.14    1011
13.16    1028
13.18    1054
13.2     1068
13.22    1107
13.24    1143
13.26    1144
13.28    1158
13.3     1158
13.32    1126
13.34    1081
13.36    1066
13.38    1047
13.4     1077
13.42    1108
13.44    1080
13.46    1077
13.48    1088
13.5     1060
13.52    1066
13.54    1048
13.56    1029
13.58    1054
13.6     1083
13.62    1140
13.64    1111
13.66    1109
13.68    1118
13.7     1099
13.72    1048
13.74    1037
13.76    1043
13.78    1085
13.8     1047
13.82    1138
13.84    1121
13.86    1153
13.88    1186
13.9     1159
13.92    1110
13.94    1128
13.96    1101
13.98    1070
14.0     1069
14.02    1082
14.04    1033
14.06    1054
14.08    1066
14.1     1052
14.12    1100
14.14    1065
14.16    1044
14.18    1100
14.2     1138
14.22    1097
14.24    1148
14.26    1165
14.28    1190
14.3     1161
14.32    1179
14.34    1160
14.36    1109
14.38    1112
14.4     1138
14.42    1115
14.44    1140
14.46    1192
14.48    1219
14.5     1155
14.52    1205
14.54    1224
14.56    1150
14.58    1094
14.6     1172
14.62    1167
14.64    1086
14.66    1128
14.68    1147
14.7     1126
14.72    1144
14.74    1125
14.76    1104
14.78    1114
14.8     1191
14.82    1166
14.84    1039
14.86    1105
14.88    1216
14.9     1242
14.92    1333
14.94    1380
14.96    1346
14.98    1322
15.0     1283
15.02    1151
15.04    1003
15.06    1008
15.08    1049
15.1     1070
15.12    1100
15.14    1068
15.16    997
15.18    1021
15.2     1075
15.22    1070
15.24    1127
15.26    1137
15.28    1109
15.3     1107
15.32    1072
15.34    1013
15.36    1009
15.38    1067
15.4     1108
15.42    1092
15.44    1017
15.46    893
15.48    865
15.5     907
15.52    907
15.54    860
15.56    909
15.58    963
15.6     982
15.62    997
15.64    1008
15.66    1012
15.68    1064
15.7     1115
15.72    1118
15.74    1082
15.76    1102
15.78    1117
15.8     1098
15.82    1083
15.84    1075
15.86    1057
15.88    1073
15.9     1108
15.92    1151
15.94    1193
15.96    1308
15.98    1383
16.0     1453
16.02    1548
16.04    1656
16.06    1728
16.08    1766
16.1     1879
16.12    1923
16.14    1935
16.16    2080
16.18    2260
16.2     2499
16.22    2790
16.24    3151
16.26    3569
16.28    4074
16.3     4695
16.32    5344
16.34    6294
16.36    7652
16.38    9304
16.4     11376
16.42    14053
16.44    17707
16.46    22779
16.48    29801
16.5     39849
16.52    52362
16.54    63292
16.56    68613
16.58    67087
16.6     59278
16.62    46804
16.64    32106
16.66    17821
16.68    6714
16.7     1199
16.72    675
16.74    1699
16.76    2187
16.78    2144
16.8     1895
16.82    1730
16.84    1712
16.86    1663
16.88    1534
16.9     1432
16.92    1389
16.94    1444
16.96    1463
16.98    1345
17.0     1290
17.02    1257
17.04    1130
17.06    1056
17.08    1023
17.1     1015
17.12    1017
17.14    1097
17.16    1064
17.18    1012
17.2     1133
17.22    1167
17.24    1043
17.26    1028
17.28    1063
17.3     1047
17.32    979
17.34    988
17.36    980
17.38    975
17.4     1035
17.42    983
17.44    907
17.46    913
17.48    951
17.5     930
17.52    865
17.54    880
17.56    876
17.58    765
17.6     729
17.62    720
17.64    722
17.66    768
17.68    777
17.7     784
17.72    837
17.74    876
17.76    853
17.78    797
17.8     830
17.82    840
17.84    763
17.86    720
17.88    715
17.9     740
17.92    804
17.94    819
17.96    828
17.98    856
18.0     851
18.02    805
18.04    736
18.06    693
18.08    722
18.1     762
18.12    768
18.14    721
18.16    669
18.18    688
18.2     697
18.22    733
18.24    723
18.26    661
18.28    705
18.3     726
18.32    671
18.34    615
18.36    551
18.38    607
18.4     676
18.42    661
18.44    631
18.46    587
18.48    662
18.5     678
18.52    706
18.54    689
18.56    685
18.58    693
18.6     663
18.62    588
18.64    567
18.66    544
18.68    662
18.7     706
18.72    699
18.74    650
18.76    710
18.78    700
18.8     662
18.82    667
18.84    667
18.86    646
18.88    708
18.9     694
18.92    642
18.94    659
18.96    717
18.98    716
19.0     684
19.02    697
19.04    690
19.06    661
19.08    697
19.1     715
19.12    682
19.14    710
19.16    742
19.18    715
19.2     644
19.22    636
19.24    597
19.26    535
19.28    525
19.3     546
19.32    580
19.34    661
19.36    725
19.38    690
19.4     704
19.42    726
19.44    642
19.46    557
19.48    549
19.5     583
19.52    613
19.54    616
19.56    641
19.58    654
19.6     693
19.62    678
19.64    614
19.66    631
19.68    652
19.7     667
19.72    636
19.74    635
19.76    640
19.78    680
19.8     638
19.82    619
19.84    611
19.86    701
19.88    706
19.9     749
19.92    691
19.94    708
19.96    686
19.98    713
20.0     654
20.02    585
20.04    520
20.06    549
20.08    545
20.1     583
20.12    584
20.14    661
20.16    677
20.18    696
20.2     688
20.22    697
20.24    649
20.26    601
20.28    580
20.3     566
20.32    639
20.34    692
20.36    682
20.38    650
20.4     671
20.42    754
20.44    705
20.46    637
20.48    612
20.5     638
20.52    712
20.54    752
20.56    732
20.58    695
20.6     687
20.62    695
20.64    622
20.66    582
20.68    584
20.7     598
20.72    562
20.74    592
20.76    592
20.78    638
20.8     606
20.82    626
20.84    673
20.86    728
20.88    794
20.9     806
20.92    765
20.94    778
20.96    731
20.98    723
21.0     642
21.02    577
21.04    512
21.06    519
21.08    560
21.1     564
21.12    528
21.14    585
21.16    601
21.18    658
21.2     691
21.22    679
21.24    638
21.26    679
21.28    635
21.3     576
21.32    530
21.34    593
21.36    616
21.38    673
21.4     637
21.42    663
21.44    668
21.46    690
21.48    638
21.5     610
21.52    578
21.54    651
21.56    693
21.58    695
21.6     564
21.62    533
21.64    500
21.66    484
21.68    500
21.7     499
21.72    516
21.74    608
21.76    656
21.78    731
21.8     692
21.82    712
21.84    686
21.86    663
21.88    660
21.9     576
21.92    561
21.94    568
21.96    557
21.98    615
22.0     649
22.02    677
22.04    630
22.06    603
22.08    603
22.1     586
22.12    613
22.14    646
22.16    626
22.18    653
22.2     643
22.22    664
22.24    627
22.26    615
22.28    576
22.3     599
22.32    561
22.34    544
22.36    533
22.38    575
22.4     637
22.42    650
22.44    626
22.46    629
22.48    640
22.5     702
22.52    685
22.54    680
22.56    646
22.58    648
22.6     640
22.62    558
22.64    587
22.66    629
22.68    626
22.7     611
22.72    575
22.74    555
22.76    538
22.78    550
22.8     531
22.82    510
22.84    574
22.86    550
22.88    538
22.9     555
22.92    590
22.94    643
22.96    674
22.98    656
23.0     616
23.02    555
23.04    556
23.06    527
23.08    578
23.1     577
23.12    610
23.14    584
23.16    577
23.18    574
23.2     583
23.22    574
23.24    565
23.26    591
23.28    559
23.3     503
23.32    521
23.34    545
23.36    582
23.38    577
23.4     606
23.42    598
23.44    612
23.46    605
23.48    530
23.5     492
23.52    562
23.54    610
23.56    648
23.58    579
23.6     612
23.62    610
23.64    650
23.66    625
23.68    564
23.7     541
23.72    547
23.74    570
23.76    618
23.78    561
23.8     558
23.82    561
23.84    568
23.86    590
23.88    591
23.9     555
23.92    509
23.94    547
23.96    562
23.98    530
24.0     506
24.02    442
24.04    425
24.06    444
24.08    484
24.1     482
24.12    477
24.14    510
24.16    543
24.18    593
24.2     647
24.22    582
24.24    597
24.26    573
24.28    582
24.3     514
24.32    481
24.34    491
24.36    490
24.38    558
24.4     564
24.42    553
24.44    582
24.46    602
24.48    595
24.5     514
24.52    504
24.54    510
24.56    505
24.58    496
24.6     439
24.62    444
24.64    486
24.66    491
24.68    508
24.7     491
24.72    533
24.74    514
24.76    519
24.78    468
24.8     490
24.82    480
24.84    558
24.86    551
24.88    594
24.9     630
24.92    686
24.94    670
24.96    652
24.98    614
25.0     671
25.02    616
25.04    627
25.06    510
25.08    415
25.1     396
25.12    414
25.14    417
25.16    463
25.18    544
25.2     602
25.22    506
25.24    485
25.26    473
25.28    503
25.3     533
25.32    524
25.34    481
25.36    503
25.38    549
25.4     557
25.42    515
25.44    544
25.46    585
25.48    599
25.5     546
25.52    487
25.54    434
25.56    426
25.58    471
25.6     534
25.62    524
25.64    504
25.66    447
25.68    421
25.7     374
25.72    406
25.74    451
25.76    498
25.78    523
25.8     552
25.82    601
25.84    583
25.86    546
25.88    480
25.9     459
25.92    441
25.94    446
25.96    421
25.98    397
26.0     417
26.02    473
26.04    476
26.06    523
26.08    559
26.1     630
26.12    561
26.14    479
26.16    426
26.18    368
26.2     373
26.22    317
26.24    316
26.26    330
26.28    424
26.3     484
26.32    481
26.34    478
26.36    464
26.38    508
26.4     561
26.42    509
26.44    501
26.46    469
26.48    502
26.5     510
26.52    497
26.54    435
26.56    382
26.58    412
26.6     412
26.62    452
26.64    533
26.66    575
26.68    560
26.7     513
26.72    462
26.74    416
26.76    425
26.78    376
26.8     391
26.82    446
26.84    487
26.86    495
26.88    466
26.9     458
26.92    471
26.94    485
26.96    501
26.98    495
27.0     483
27.02    473
27.04    470
27.06    447
27.08    455
27.1     484
27.12    473
27.14    429
27.16    379
27.18    383
27.2     366
27.22    360
27.24    383
27.26    376
27.28    450
27.3     507
27.32    538
27.34    515
27.36    494
27.38    529
27.4     536
27.42    500
27.44    452
27.46    377
27.48    417
27.5     443
27.52    519
27.54    546
27.56    519
27.58    529
27.6     510
27.62    524
27.64    455
27.66    388
27.68    356
27.7     337
27.72    392
27.74    408
27.76    395
27.78    411
27.8     448
27.82    461
27.84    457
27.86    400
27.88    364
27.9     321
27.92    326
27.94    332
27.96    330
27.98    364
28.0     401
28.02    402
28.04    523
28.06    503
28.08    548
28.1     508
28.12    527
28.14    440
28.16    368
28.18    362
28.2     371
28.22    437
28.24    528
28.26    527
28.28    549
28.3     546
28.32    562
28.34    523
28.36    518
28.38    525
28.4     529
28.42    512
28.44    542
28.46    524
28.48    479
28.5     446
28.52    414
28.54    432
28.56    466
28.58    501
28.6     472
28.62    470
28.64    507
28.66    542
28.68    565
28.7     533
28.72    458
28.74    393
28.76    389
28.78    387
28.8     356
28.82    405
28.84    372
28.86    415
28.88    444
28.9     378
28.92    366
28.94    366
28.96    365
28.98    384
29.0     414
29.02    440
29.04    452
29.06    458
29.08    465
29.1     418
29.12    383
29.14    387
29.16    338
29.18    387
29.2     449
29.22    461
29.24    516
29.26    441
29.28    441
29.3     382
29.32    323
29.34    405
29.36    424
29.38    545
29.4     570
29.42    527
29.44    465
29.46    379
29.48    374
29.5     326
29.52    346
29.54    437
29.56    443
29.58    485
29.6     449
29.62    432
29.64    403
29.66    423
29.68    435
29.7     403
29.72    443
29.74    435
29.76    412
29.78    392
29.8     377
29.82    401
29.84    427
29.86    412
29.88    465
29.9     453
29.92    497
29.94    474
29.96    467
29.98    475
30.0     467
30.02    444
30.04    364
30.06    269
30.08    317
30.1     353
30.12    386
30.14    456
30.16    491
30.18    511
30.2     507
30.22    516
30.24    522
30.26    551
30.28    573
30.3     584
30.32    566
30.34    532
30.36    436
30.38    350
30.4     320
30.42    325
30.44    393
30.46    424
30.48    396
30.5     411
30.52    417
30.54    390
30.56    399
30.58    470
30.6     499
30.62    527
30.64    555
30.66    548
30.68    478
30.7     489
30.72    471
30.74    478
30.76    486
30.78    471
30.8     451
30.82    369
30.84    272
30.86    245
30.88    249
30.9     384
30.92    467
30.94    530
30.96    544
30.98    420
31.0     374
31.02    307
31.04    276
31.06    342
31.08    408
31.1     484
31.12    523
31.14    493
31.16    464
31.18    344
31.2     323
31.22    344
31.24    363
31.26    428
31.28    422
31.3     469
31.32    464
31.34    408
31.36    431
31.38    376
31.4     396
31.42    410
31.44    425
31.46    499
31.48    525
31.5     632
31.52    616
31.54    590
31.56    559
31.58    493
31.6     507
31.62    443
31.64    449
31.66    498
31.68    467
31.7     468
31.72    443
31.74    419
31.76    415
31.78    430
31.8     463
31.82    457
31.84    483
31.86    478
31.88    395
31.9     346
31.92    367
31.94    368
31.96    373
31.98    445
32.0     480
32.02    480
32.04    509
32.06    497
32.08    487
32.1     507
32.12    472
32.14    466
32.16    494
32.18    587
32.2     611
32.22    636
32.24    662
32.26    637
32.28    638
32.3     600
32.32    485
32.34    512
32.36    569
32.38    612
32.4     690
32.42    680
32.44    641
32.46    622
32.48    543
32.5     444
32.52    418
32.54    446
32.56    490
32.58    563
32.6     626
32.62    609
32.64    582
32.66    552
32.68    399
32.7     382
32.72    422
32.74    446
32.76    532
32.78    658
32.8     743
32.82    757
32.84    726
32.86    654
32.88    526
32.9     516
32.92    455
32.94    461
32.96    507
32.98    576
33.0     596
33.02    606
33.04    645
33.06    686
33.08    677
33.1     711
33.12    689
33.14    652
33.16    654
33.18    662
33.2     651
33.22    749
33.24    812
33.26    895
33.28    889
33.3     997
33.32    1055
33.34    1178
33.36    1438
33.38    1723
33.4     2128
33.42    2730
33.44    3613
33.46    5237
33.48    8042
33.5     11743
33.52    15181
33.54    17403
33.56    17863
33.58    16589
33.6     13868
33.62    10079
33.64    6138
33.66    3003
33.68    1284
33.7     826
33.72    824
33.74    820
33.76    847
33.78    854
33.8     825
33.82    769
33.84    729
33.86    681
33.88    612
33.9     591
33.92    577
33.94    584
33.96    627
33.98    596
34.0     563
34.02    510
34.04    537
34.06    528
34.08    527
34.1     506
34.12    476
34.14    441
34.16    467
34.18    493
34.2     496
34.22    481
34.24    585
34.26    572
34.28    582
34.3     566
34.32    465
34.34    436
34.36    484
34.38    483
34.4     491
34.42    495
34.44    518
34.46    521
34.48    535
34.5     535
34.52    516
34.54    573
34.56    613
34.58    623
34.6     655
34.62    608
34.64    545
34.66    512
34.68    497
34.7     489
34.72    507
34.74    530
34.76    553
34.78    596
34.8     618
34.82    589
34.84    570
34.86    601
34.88    600
34.9     660
34.92    710
34.94    814
34.96    991
34.98    1172
35.0     1438
35.02    2135
35.04    3616
35.06    6271
35.08    9642
35.1     12608
35.12    14322
35.14    14755
35.16    13688
35.18    11301
35.2     8166
35.22    4945
35.24    2541
35.26    1437
35.28    1221
35.3     1127
35.32    1047
35.34    1095
35.36    1079
35.38    1076
35.4     1062
35.42    955
35.44    868
35.46    739
35.48    656
35.5     594
35.52    584
35.54    566
35.56    574
35.58    614
35.6     613
35.62    646
35.64    649
35.66    646
35.68    640
35.7     602
35.72    572
35.74    516
35.76    564
35.78    621
35.8     687
35.82    726
35.84    752
35.86    753
35.88    666
35.9     535
35.92    446
35.94    433
35.96    533
35.98    625
36.0     723
36.02    760
36.04    780
36.06    770
36.08    662
36.1     626
36.12    655
36.14    781
36.16    907
36.18    984
36.2     1089
36.22    1096
36.24    1136
36.26    1202
36.28    1273
36.3     1526
36.32    1823
36.34    2273
36.36    3018
36.38    4477
36.4     7771
36.42    13671
36.44    21166
36.46    27749
36.48    31724
36.5     32498
36.52    30114
36.54    24840
36.56    17757
36.58    10623
36.6     5340
36.62    2879
36.64    2222
36.66    1883
36.68    1496
36.7     1235
36.72    1192
36.74    1062
36.76    1033
36.78    1185
36.8     1149
36.82    1111
36.84    1057
36.86    935
36.88    795
36.9     744
36.92    717
36.94    680
36.96    729
36.98    776
37.0     800
37.02    889
37.04    966
37.06    1055
37.08    1201
37.1     1323
37.12    1386
37.14    1423
37.16    1373
37.18    1210
37.2     1081
37.22    956
37.24    845
37.26    773
37.28    777
37.3     802
37.32    899
37.34    1072
37.36    1179
37.38    1232
37.4     1203
37.42    1073
37.44    805
37.46    478
37.48    253
37.5     176
37.52    211
37.54    374
37.56    508
37.58    637
37.6     647
37.62    642
37.64    522
37.66    401
37.68    399
37.7     426
37.72    497
37.74    633
37.76    726
37.78    782
37.8     808
37.82    775
37.84    662
37.86    598
37.88    541
37.9     426
37.92    408
37.94    428
37.96    443
37.98    520
38.0     574
38.02    583
38.04    641
38.06    726
38.08    673
38.1     630
38.12    567
38.14    441
38.16    339
38.18    387
38.2     385
38.22    470
38.24    546
38.26    599
38.28    492
38.3     502
38.32    433
38.34    379
38.36    384
38.38    522
38.4     581
38.42    665
38.44    665
38.46    624
38.48    470
38.5     446
38.52    399
38.54    411
38.56    426
38.58    461
38.6     477
38.62    542
38.64    548
38.66    573
38.68    563
38.7     597
38.72    603
38.74    578
38.76    502
38.78    452
38.8     449
38.82    489
38.84    447
38.86    485
38.88    525
38.9     548
38.92    546
38.94    484
38.96    430
38.98    408
39.0     419
39.02    470
39.04    462
39.06    483
39.08    491
39.1     503
39.12    452
39.14    427
39.16    448
39.18    476
39.2     528
39.22    596
39.24    604
39.26    520
39.28    419
39.3     348
39.32    225
39.34    246
39.36    341
39.38    420
39.4     528
39.42    696
39.44    773
39.46    685
39.48    610
39.5     543
39.52    379
39.54    327
39.56    332
39.58    324
39.6     358
39.62    456
39.64    516
39.66    542
39.68    550
39.7     553
39.72    513
39.74    457
39.76    468
39.78    514
39.8     540
39.82    553
39.84    565
39.86    583
39.88    491
39.9     493
39.92    482
39.94    422
39.96    470
39.98    510
40.0     566
40.02    600
40.04    641
40.06    781
40.08    872
40.1     974
40.12    1034
40.14    1042
40.16    1029
40.18    946
40.2     880
40.22    763
40.24    676
40.26    713
40.28    725
40.3     761
40.32    793
40.34    829
40.36    893
40.38    939
40.4     903
40.42    797
40.44    782
40.46    815
40.48    844
40.5     882
40.52    907
40.54    924
40.56    915
40.58    866
40.6     709
40.62    591
40.64    598
40.66    591
40.68    667
40.7     730
40.72    798
40.74    875
40.76    933
40.78    946
40.8     907
40.82    879
40.84    895
40.86    857
40.88    869
40.9     854
40.92    840
40.94    806
40.96    806
40.98    801
41.0     827
41.02    871
41.04    1014
41.06    1080
41.08    1212
41.1     1274
41.12    1348
41.14    1368
41.16    1428
41.18    1460
41.2     1538
41.22    1667
41.24    1841
41.26    2081
41.28    2423
41.3     2858
41.32    3434
41.34    4071
41.36    4785
41.38    5690
41.4     6864
41.42    8809
41.44    12803
41.46    23359
41.48    44953
41.5     74136
41.52    101465
41.54    119507
41.56    124809
41.58    117165
41.6     98131
41.62    71059
41.64    41783
41.66    19156
41.68    8370
41.7     5598
41.72    4818
41.74    3829
41.76    2781
41.78    2185
41.8     2111
41.82    2131
41.84    2085
41.86    2109
41.88    2139
41.9     1991
41.92    1705
41.94    1492
41.96    1388
41.98    1256
42.0     1173
42.02    1164
42.04    1158
42.06    1138
42.08    1123
42.1     1046
42.12    929
42.14    896
42.16    907
42.18    893
42.2     923
42.22    954
42.24    976
42.26    966
42.28    926
42.3     905
42.32    909
42.34    861
42.36    833
42.38    802
42.4     751
42.42    678
42.44    659
42.46    686
42.48    714
42.5     782
42.52    904
42.54    935
42.56    1016
42.58    985
42.6     911
42.62    806
42.64    714
42.66    663
42.68    628
42.7     581
42.72    597
42.74    595
42.76    667
42.78    644
42.8     685
42.82    674
42.84    669
42.86    636
42.88    664
42.9     692
42.92    685
42.94    722
42.96    759
42.98    770
43.0     825
43.02    882
43.04    996
43.06    1198
43.08    1512
43.1     1806
43.12    2012
43.14    2112
43.16    2068
43.18    1918
43.2     1648
43.22    1356
43.24    1113
43.26    955
43.28    851
43.3     796
43.32    804
43.34    768
43.36    786
43.38    751
43.4     712
43.42    693
43.44    640
43.46    609
43.48    552
43.5     569
43.52    576
43.54    542
43.56    575
43.58    561
43.6     564
43.62    578
43.64    539
43.66    536
43.68    472
43.7     540
43.72    597
43.74    595
43.76    675
43.78    732
43.8     753
43.82    697
43.84    682
43.86    682
43.88    610
43.9     637
43.92    675
43.94    675
43.96    622
43.98    584
44.0     526
44.02    424
44.04    445
44.06    481
44.08    527
44.1     630
44.12    749
44.14    790
44.16    689
44.18    609
44.2     547
44.22    444
44.24    398
44.26    362
44.28    410
44.3     500
44.32    546
44.34    629
44.36    627
44.38    705
44.4     754
44.42    751
44.44    728
44.46    662
44.48    602
44.5     543
44.52    481
44.54    471
44.56    399
44.58    389
44.6     358
44.62    387
44.64    440
44.66    482
44.68    541
44.7     648
44.72    715
44.74    701
44.76    654
44.78    610
44.8     549
44.82    549
44.84    608
44.86    583
44.88    623
44.9     630
44.92    681
44.94    843
44.96    1164
44.98    1730
45.0     2271
45.02    2748
45.04    3023
45.06    2882
45.08    2544
45.1     2039
45.12    1527
45.14    1091
45.16    807
45.18    783
45.2     768
45.22    756
45.24    652
45.26    514
45.28    423
45.3     383
45.32    362
45.34    382
45.36    490
45.38    555
45.4     608
45.42    626
45.44    559
45.46    614
45.48    610
45.5     506
45.52    499
45.54    529
45.56    618
45.58    593
45.6     602
45.62    654
45.64    649
45.66    701
45.68    646
45.7     557
45.72    528
45.74    486
45.76    471
45.78    424
45.8     444
45.82    445
45.84    453
45.86    493
45.88    515
45.9     560
45.92    562
45.94    601
45.96    670
45.98    689
46.0     681
46.02    596
46.04    631
46.06    603
46.08    567
46.1     520
46.12    522
46.14    526
46.16    520
46.18    497
46.2     498
46.22    496
46.24    534
46.26    457
46.28    466
46.3     511
46.32    544
46.34    507
46.36    483
46.38    511
46.4     539
46.42    506
46.44    490
46.46    474
46.48    462
46.5     446
46.52    349
46.54    280
46.56    292
46.58    298
46.6     348
46.62    380
46.64    437
46.66    485
46.68    451
46.7     452
46.72    371
46.74    325
46.76    311
46.78    375
46.8     424
46.82    474
46.84    524
46.86    581
46.88    621
46.9     583
46.92    541
46.94    516
46.96    452
46.98    497
47.0     451
47.02    476
47.04    525
47.06    538
47.08    553
47.1     529
47.12    572
47.14    529
47.16    420
47.18    354
47.2     316
47.22    285
47.24    255
47.26    250
47.28    354
47.3     436
47.32    486
47.34    511
47.36    558
47.38    581
47.4     607
47.42    579
47.44    532
47.46    487
47.48    523
47.5     463
47.52    409
47.54    393
47.56    374
47.58    391
47.6     406
47.62    394
47.64    385
47.66    383
47.68    451
47.7     502
47.72    558
47.74    571
47.76    573
47.78    603
47.8     586
47.82    511
47.84    466
47.86    389
47.88    395
47.9     446
47.92    475
47.94    506
47.96    530
47.98    539
48.0     536
48.02    545
48.04    549
48.06    478
48.08    518
48.1     534
48.12    534
48.14    546
48.16    513
48.18    477
48.2     501
48.22    454
48.24    462
48.26    381
48.28    382
48.3     394
48.32    352
48.34    375
48.36    408
48.38    473
48.4     547
48.42    496
48.44    550
48.46    485
48.48    496
48.5     421
48.52    361
48.54    352
48.56    373
48.58    429
48.6     421
48.62    396
48.64    453
48.66    491
48.68    490
48.7     412
48.72    391
48.74    378
48.76    368
48.78    317
48.8     294
48.82    287
48.84    354
48.86    412
48.88    398
48.9     421
48.92    400
48.94    388
48.96    344
48.98    303
49.0     324
49.02    351
49.04    374
49.06    422
49.08    447
49.1     475
49.12    483
49.14    449
49.16    397
49.18    391
49.2     387
49.22    397
49.24    358
49.26    333
49.28    319
49.3     377
49.32    433
49.34    426
49.36    438
49.38    536
49.4     585
49.42    548
49.44    539
49.46    553
49.48    520
49.5     509
49.52    439
49.54    439
49.56    437
49.58    443
49.6     410
49.62    402
49.64    467
49.66    499
49.68    433
49.7     437
49.72    462
49.74    519
49.76    440
49.78    352
49.8     305
49.82    352
49.84    281
49.86    234
49.88    230
49.9     321
49.92    434
49.94    477
49.96    448
49.98    509
50.0     560
50.02    613
50.04    541
50.06    442
50.08    421
50.1     385
50.12    322
50.14    316
50.16    356
50.18    445
50.2     507
50.22    516
50.24    483
50.26    408
50.28    413
50.3     321
50.32    279
50.34    327
50.36    378
50.38    442
50.4     511
50.42    454
50.44    469
50.46    472
50.48    413
50.5     374
50.52    352
50.54    347
50.56    369
50.58    432
50.6     445
50.62    472
50.64    466
50.66    469
50.68    398
50.7     381
50.72    296
50.74    309
50.76    293
50.78    381
50.8     363
50.82    449
50.84    452
50.86    562
50.88    582
50.9     527
50.92    447
50.94    485
50.96    450
50.98    464
51.0     333
51.02    331
51.04    340
51.06    341
51.08    284
51.1     207
51.12    208
51.14    293
51.16    335
51.18    366
51.2     363
51.22    411
51.24    452
51.26    477
51.28    497
51.3     517
51.32    531
51.34    492
51.36    505
51.38    454
51.4     428
51.42    429
51.44    407
51.46    429
51.48    491
51.5     462
51.52    414
51.54    350
51.56    366
51.58    397
51.6     442
51.62    464
51.64    506
51.66    554
51.68    612
51.7     560
51.72    503
51.74    457
51.76    416
51.78    399
51.8     380
51.82    334
51.84    416
51.86    454
51.88    489
51.9     548
51.92    566
51.94    621
51.96    641
51.98    601
52.0     582
52.02    482
52.04    469
52.06    464
52.08    404
52.1     368
52.12    361
52.14    452
52.16    508
52.18    554
52.2     614
52.22    674
52.24    756
52.26    740
52.28    632
52.3     534
52.32    511
52.34    465
52.36    412
52.38    417
52.4     495
52.42    610
52.44    649
52.46    585
52.48    614
52.5     563
52.52    516
52.54    456
52.56    394
52.58    374
52.6     427
52.62    443
52.64    471
52.66    495
52.68    508
52.7     472
52.72    473
52.74    504
52.76    495
52.78    452
52.8     466
52.82    484
52.84    504
52.86    473
52.88    468
52.9     483
52.92    501
52.94    516
52.96    542
52.98    546
53.0     568
53.02    601
53.04    596
53.06    598
53.08    693
53.1     696
53.12    662
53.14    627
53.16    629
53.18    658
53.2     680
53.22    763
53.24    825
53.26    907
53.28    1046
53.3     1073
53.32    1177
53.34    1506
53.36    2265
53.38    3994
53.4     6661
53.42    9545
53.44    11802
53.46    12933
53.48    12738
53.5     11203
53.52    8732
53.54    5872
53.56    3216
53.58    1589
53.6     973
53.62    853
53.64    846
53.66    825
53.68    778
53.7     738
53.72    692
53.74    707
53.76    658
53.78    602
53.8     614
53.82    620
53.84    581
53.86    545
53.88    520
53.9     490
53.92    512
53.94    530
53.96    524
53.98    572
54.0     626
54.02    671
54.04    675
54.06    646
54.08    580
54.1     516
54.12    491
54.14    476
54.16    464
54.18    516
54.2     511
54.22    601
54.24    637
54.26    597
54.28    537
54.3     491
54.32    535
54.34    571
54.36    574
54.38    609
54.4     595
54.42    539
54.44    538
54.46    449
54.48    361
54.5     302
54.52    345
54.54    307
54.56    354
54.58    388
54.6     389
54.62    444
54.64    572
54.66    550
54.68    558
54.7     506
54.72    449
54.74    405
54.76    433
54.78    400
54.8     385
54.82    419
54.84    527
54.86    532
54.88    581
54.9     523
54.92    478
54.94    502
54.96    459
54.98    349
55.0     246
55.02    216
55.04    287
55.06    258
55.08    285
55.1     356
55.12    430
55.14    509
55.16    506
55.18    459
55.2     442
55.22    407
55.24    361
55.26    357
55.28    327
55.3     364
55.32    410
55.34    459
55.36    518
55.38    528
55.4     534
55.42    472
55.44    476
55.46    439
55.48    366
55.5     319
55.52    325
55.54    395
55.56    471
55.58    538
55.6     600
55.62    643
55.64    678
55.66    655
55.68    595
55.7     507
55.72    477
55.74    469
55.76    427
55.78    398
55.8     434
55.82    441
55.84    419
55.86    407
55.88    349
55.9     271
55.92    283
55.94    271
55.96    272
55.98    286
56.0     350
56.02    384
56.04    435
56.06    486
56.08    563
56.1     583
56.12    623
56.14    616
56.16    516
56.18    455
56.2     309
56.22    238
56.24    183
56.26    227
56.28    310
56.3     380
56.32    456
56.34    537
56.36    583
56.38    640
56.4     630
56.42    657
56.44    627
56.46    580
56.48    492
56.5     422
56.52    343
56.54    337
56.56    330
56.58    382
56.6     450
56.62    505
56.64    547
56.66    525
56.68    510
56.7     487
56.72    467
56.74    474
56.76    450
56.78    484
56.8     504
56.82    574
56.84    632
56.86    684
56.88    676
56.9     706
56.92    687
56.94    600
56.96    557
56.98    477
57.0     458
57.02    448
57.04    468
57.06    426
57.08    413
57.1     460
57.12    458
57.14    488
57.16    575
57.18    613
57.2     593
57.22    563
57.24    541
57.26    467
57.28    487
57.3     458
57.32    473
57.34    527
57.36    598
57.38    643
57.4     624
57.42    592
57.44    581
57.46    584
57.48    539
57.5     497
57.52    450
57.54    441
57.56    420
57.58    488
57.6     584
57.62    611
57.64    695
57.66    717
57.68    765
57.7     783
57.72    715
57.74    694
57.76    616
57.78    636
57.8     682
57.82    668
57.84    681
57.86    672
57.88    770
57.9     840
57.92    908
57.94    990
57.96    1064
57.98    1170
58.0     1363
58.02    1460
58.04    1535
58.06    1628
58.08    1789
58.1     2057
58.12    2404
58.14    3047
58.16    4270
58.18    6939
58.2     11681
58.22    17888
58.24    23949
58.26    28217
58.28    29686
58.3     28285
58.32    24227
58.34    18226
58.36    11618
58.38    6270
58.4     3198
58.42    2058
58.44    1794
58.46    1579
58.48    1341
58.5     1223
58.52    1190
58.54    1086
58.56    937
58.58    892
58.6     858
58.62    893
58.64    916
58.66    859
58.68    777
58.7     715
58.72    758
58.74    732
58.76    667
58.78    649
58.8     561
58.82    585
58.84    574
58.86    610
58.88    568
58.9     562
58.92    580
58.94    581
58.96    560
58.98    531
59.0     472
59.02    445
59.04    447
59.06    499
59.08    529
59.1     539
59.12    542
59.14    528
59.16    520
59.18    521
59.2     480
59.22    414
59.24    433
59.26    455
59.28    492
59.3     531
59.32    552
59.34    552
59.36    616
59.38    645
59.4     591
59.42    506
59.44    459
59.46    368
59.48    300
59.5     292
59.52    255
59.54    280
59.56    346
59.58    456
59.6     507
59.62    541
59.64    541
59.66    520
59.68    457
59.7     446
59.72    398
59.74    383
59.76    370
59.78    397
59.8     430
59.82    439
59.84    491
59.86    532
59.88    543
59.9     561
59.92    539
59.94    551
59.96    528
59.98    549
60.0     522
60.02    506
60.04    507
60.06    504
60.08    552
60.1     490
60.12    456
60.14    465
60.16    475
60.18    520
60.2     509
60.22    519
60.24    478
60.26    506
60.28    529
60.3     454
60.32    479
60.34    490
60.36    489
60.38    499
60.4     510
60.42    494
60.44    445
60.46    438
60.48    444
60.5     427
60.52    458
60.54    509
60.56    500
60.58    539
60.6     573
60.62    595
60.64    535
60.66    551
60.68    529
60.7     474
60.72    437
60.74    426
60.76    353
60.78    336
60.8     370
60.82    351
60.84    372
60.86    407
60.88    458
60.9     501
60.92    572
60.94    611
60.96    629
60.98    594
61.0     570
61.02    464
61.04    491
61.06    430
61.08    403
61.1     362
61.12    406
61.14    400
61.16    433
61.18    468
61.2     446
61.22    418
61.24    476
61.26    499
61.28    476
61.3     489
61.32    512
61.34    510
61.36    564
61.38    640
61.4     567
61.42    484
61.44    508
61.46    418
61.48    387
61.5     394
61.52    418
61.54    421
61.56    445
61.58    515
61.6     529
61.62    550
61.64    622
61.66    517
61.68    585
61.7     600
61.72    665
61.74    688
61.76    691
61.78    717
61.8     723
61.82    770
61.84    839
61.86    863
61.88    911
61.9     954
61.92    1033
61.94    1054
61.96    1072
61.98    1113
62.0     1234
62.02    1744
62.04    2874
62.06    5029
62.08    8568
62.1     13398
62.12    18503
62.14    22604
62.16    24909
62.18    24913
62.2     22673
62.22    18773
62.24    14081
62.26    9782
62.28    6548
62.3     4704
62.32    3690
62.34    2991
62.36    2561
62.38    2148
62.4     1802
62.42    1533
62.44    1351
62.46    1284
62.48    1127
62.5     1045
62.52    963
62.54    988
62.56    1148
62.58    1205
62.6     1306
62.62    1390
62.64    1479
62.66    1490
62.68    1474
62.7     1373
62.72    1206
62.74    1078
62.76    944
62.78    806
62.8     712
62.82    674
62.84    691
62.86    650
62.88    694
62.9     616
62.92    575
62.94    555
62.96    522
62.98    568
63.0     605
63.02    615
63.04    651
63.06    641
63.08    678
63.1     634
63.12    642
63.14    639
63.16    595
63.18    615
63.2     563
63.22    502
63.24    491
63.26    438
63.28    458
63.3     430
63.32    433
63.34    469
63.36    498
63.38    557
63.4     574
63.42    572
63.44    584
63.46    565
63.48    554
63.5     472
63.52    397
63.54    356
63.56    311
63.58    366
63.6     424
63.62    428
63.64    514
63.66    523
63.68    542
63.7     505
63.72    486
63.74    477
63.76    424
63.78    443
63.8     441
63.82    460
63.84    522
63.86    479
63.88    499
63.9     467
63.92    476
63.94    454
63.96    417
63.98    336
64.0     307
64.02    321
64.04    376
64.06    387
64.08    435
64.1     508
64.12    569
64.14    623
64.16    681
64.18    614
64.2     566
64.22    499
64.24    452
64.26    391
64.28    345
64.3     326
64.32    317
64.34    372
64.36    459
64.38    500
64.4     533
64.42    562
64.44    568
64.46    577
64.48    616
64.5     588
64.52    609
64.54    602
64.56    607
64.58    597
64.6     553
64.62    513
64.64    489
64.66    503
64.68    670
64.7     894
64.72    1329
64.74    2071
64.76    3156
64.78    4499
64.8     5726
64.82    6625
64.84    7025
64.86    6773
64.88    6012
64.9     4878
64.92    3603
64.94    2561
64.96    1759
64.98    1360
65.0     1116
65.02    994
65.04    960
65.06    914
65.08    858
65.1     867
65.12    798
65.14    822
65.16    727
65.18    694
65.2     671
65.22    637
65.24    636
65.26    571
65.28    542
65.3     512
65.32    442
65.34    476
65.36    412
65.38    377
65.4     390
65.42    337
65.44    322
65.46    276
65.48    332
65.5     323
65.52    360
65.54    439
65.56    471
65.58    475
65.6     470
65.62    465
65.64    528
65.66    512
65.68    526
65.7     483
65.72    481
65.74    469
65.76    463
65.78    422
65.8     318
65.82    273
65.84    236
65.86    212
65.88    224
65.9     173
65.92    167
65.94    180
65.96    208
65.98    264
66.0     281
66.02    353
66.04    406
66.06    481
66.08    521
66.1     554
66.12    567
66.14    664
66.16    663
66.18    688
66.2     692
66.22    675
66.24    616
66.26    504
66.28    351
66.3     249
66.32    162
66.34    214
66.36    180
66.38    210
66.4     281
66.42    337
66.44    404
66.46    423
66.48    472
66.5     494
66.52    526
66.54    532
66.56    538
66.58    501
66.6     452
66.62    398
66.64    381
66.66    327
66.68    324
66.7     306
66.72    313
66.74    294
66.76    307
66.78    294
66.8     297
66.82    332
66.84    306
66.86    287
66.88    256
66.9     293
66.92    293
66.94    291
66.96    270
66.98    320
67.0     344
67.02    374
67.04    404
67.06    503
67.08    453
67.1     426
67.12    383
67.14    382
67.16    355
67.18    458
67.2     451
67.22    419
67.24    469
67.26    480
67.28    462
67.3     470
67.32    461
67.34    392
67.36    301
67.38    306
67.4     250
67.42    168
67.44    225
67.46    284
67.48    350
67.5     444
67.52    473
67.54    444
67.56    451
67.58    465
67.6     419
67.62    352
67.64    409
67.66    385
67.68    372
67.7     396
67.72    377
67.74    361
67.76    394
67.78    408
67.8     384
67.82    411
67.84    408
67.86    368
67.88    373
67.9     379
67.92    391
67.94    399
67.96    404
67.98    455
68.0     449
68.02    433
68.04    349
68.06    287
68.08    243
68.1     264
68.12    290
68.14    313
68.16    354
68.18    426
68.2     461
68.22    467
68.24    515
68.26    524
68.28    553
68.3     545
68.32    527
68.34    471
68.36    437
68.38    426
68.4     413
68.42    401
68.44    396
68.46    407
68.48    424
68.5     452
68.52    455
68.54    419
68.56    478
68.58    528
68.6     562
68.62    527
68.64    488
68.66    505
68.68    487
68.7     507
68.72    561
68.74    632
68.76    697
68.78    736
68.8     824
68.82    926
68.84    1211
68.86    1680
68.88    2470
68.9     3674
68.92    5141
68.94    6413
68.96    7286
68.98    7555
69.0     7133
69.02    6218
69.04    4847
69.06    3440
69.08    2290
69.1     1574
69.12    1183
69.14    974
69.16    850
69.18    735
69.2     624
69.22    573
69.24    421
69.26    402
69.28    428
69.3     453
69.32    513
69.34    605
69.36    626
69.38    706
69.4     699
69.42    681
69.44    584
69.46    563
69.48    500
69.5     443
69.52    412
69.54    451
69.56    410
69.58    414
69.6     409
69.62    368
69.64    357
69.66    321
69.68    326
69.7     339
69.72    317
69.74    375
69.76    388
69.78    418
69.8     413
69.82    397
69.84    418
69.86    441
69.88    517
69.9     521
69.92    543
69.94    591
69.96    605
69.98    526
70.0     416
70.02    376
70.04    343
70.06    277
70.08    219
70.1     208
70.12    249
70.14    298
70.16    308
70.18    402
70.2     458
70.22    535
70.24    584
70.26    549
70.28    566
70.3     538
70.32    551
70.34    596
70.36    696
70.38    835
70.4     931
70.42    1037
70.44    1122
70.46    1327
70.48    1641
70.5     2042
70.52    2478
70.54    2921
70.56    3189
70.58    3241
70.6     3100
70.62    2725
70.64    2180
70.66    1700
70.68    1266
70.7     894
70.72    658
70.74    579
70.76    512
70.78    536
70.8     544
70.82    573
70.84    586
70.86    585
70.88    561
70.9     523
70.92    485
70.94    438
70.96    364
70.98    339
71.0     260
71.02    265
71.04    295
71.06    332
71.08    297
71.1     327
71.12    323
71.14    323
71.16    331
71.18    357
71.2     323
71.22    366
71.24    358
71.26    338
71.28    292
71.3     333
71.32    327
71.34    333
71.36    354
71.38    349
71.4     375
71.42    409
71.44    413
71.46    472
71.48    505
71.5     521
71.52    471
71.54    445
71.56    435
71.58    456
71.6     459
71.62    419
71.64    386
71.66    407
71.68    347
71.7     334
71.72    297
71.74    333
71.76    350
71.78    367
71.8     285
71.82    303
71.84    334
71.86    379
71.88    416
71.9     513
71.92    555
71.94    602
71.96    571
71.98    519
72.0     432
72.02    463
72.04    477
72.06    478
72.08    450
72.1     421
72.12    400
72.14    455
72.16    458
72.18    478
72.2     565
72.22    661
72.24    715
72.26    693
72.28    686
72.3     668
72.32    714
72.34    730
72.36    696
72.38    765
72.4     938
72.42    1205
72.44    1837
72.46    2972
72.48    4602
72.5     6276
72.52    7684
72.54    8466
72.56    8568
72.58    7952
72.6     6750
72.62    5265
72.64    3886
72.66    2816
72.68    2162
72.7     1821
72.72    1540
72.74    1293
72.76    1102
72.78    862
72.8     698
72.82    618
72.84    520
72.86    491
72.88    472
72.9     483
72.92    477
72.94    457
72.96    435
72.98    385
73.0     391
73.02    430
73.04    472
73.06    528
73.08    529
73.1     519
73.12    559
73.14    532
73.16    511
73.18    503
73.2     496
73.22    493
73.24    523
73.26    512
73.28    480
73.3     422
73.32    398
73.34    372
73.36    402
73.38    514
73.4     731
73.42    969
73.44    1212
73.46    1348
73.48    1344
73.5     1297
73.52    1211
73.54    1066
73.56    915
73.58    839
73.6     781
73.62    691
73.64    658
73.66    564
73.68    550
73.7     564
73.72    551
73.74    538
73.76    551
73.78    549
73.8     455
73.82    391
73.84    345
73.86    280
73.88    308
73.9     306
73.92    313
73.94    393
73.96    465
73.98    500
74.0     521
74.02    518
74.04    535
74.06    572
74.08    584
74.1     573
74.12    634
74.14    708
74.16    810
74.18    940
74.2     1230
74.22    1611
74.24    2134
74.26    2628
74.28    2988
74.3     3130
74.32    3153
74.34    2915
74.36    2516
74.38    2051
74.4     1669
74.42    1350
74.44    1114
74.46    986
74.48    930
74.5     888
74.52    881
74.54    847
74.56    791
74.58    744
74.6     757
74.62    753
74.64    809
74.66    878
74.68    948
74.7     1090
74.72    1261
74.74    1558
74.76    2001
74.78    2658
74.8     3324
74.82    3810
74.84    4110
74.86    4000
74.88    3607
74.9     3046
74.92    2366
74.94    1692
74.96    1233
74.98    977
75.0     718
75.02    598
75.04    571
75.06    539
75.08    609
75.1     716
75.12    707
75.14    669
75.16    696
75.18    699
75.2     586
75.22    570
75.24    515
75.26    495
75.28    547
75.3     540
75.32    481
75.34    549
75.36    617
75.38    658
75.4     577
75.42    598
75.44    513
75.46    479
75.48    417
75.5     347
75.52    313
75.54    344
75.56    287
75.58    216
75.6     175
75.62    236
75.64    237
75.66    236
75.68    245
75.7     301
75.72    304
75.74    373
75.76    396
75.78    443
75.8     498
75.82    525
75.84    500
75.86    462
75.88    471
75.9     464
75.92    416
75.94    431
75.96    373
75.98    329
76.0     258
76.02    226
76.04    245
76.06    244
76.08    250
76.1     288
76.12    318
76.14    359
76.16    393
76.18    424
76.2     399
76.22    470
76.24    474
76.26    409
76.28    447
76.3     436
76.32    434
76.34    459
76.36    465
76.38    364
76.4     314
76.42    320
76.44    275
76.46    297
76.48    413
76.5     345
76.52    411
76.54    438
76.56    402
76.58    383
76.6     389
76.62    353
76.64    292
76.66    279
76.68    261
76.7     163
76.72    273
76.74    266
76.76    289
76.78    358
76.8     358
76.82    307
76.84    224
76.86    236
76.88    274
76.9     247
76.92    267
76.94    172
76.96    201
76.98    246
77.0     249
77.02    297
77.04    314
77.06    397
77.08    527
77.1     480
77.12    522
77.14    598
77.16    635
77.18    589
77.2     554
77.22    571
77.24    495
77.26    464
77.28    449
77.3     354
77.32    407
77.34    517
77.36    497
77.38    572
77.4     756
77.42    1009
77.44    1387
77.46    1928
77.48    2768
77.5     3940
77.52    5404
77.54    6916
77.56    8138
77.58    8906
77.6     9016
77.62    8360
77.64    7216
77.66    5766
77.68    4389
77.7     3254
77.72    2453
77.74    1967
77.76    1710
77.78    1552
77.8     1403
77.82    1219
77.84    1090
77.86    1033
77.88    962
77.9     893
77.92    817
77.94    775
77.96    706
77.98    604
78.0     436
78.02    335
78.04    243
78.06    267
78.08    232
78.1     227
78.12    245
78.14    280
78.16    327
78.18    340
78.2     349
78.22    436
78.24    521
78.26    570
78.28    627
78.3     604
78.32    563
78.34    567
78.36    578
78.38    534
78.4     468
78.42    474
78.44    412
78.46    338
78.48    341
78.5     287
78.52    263
78.54    322
78.56    320
78.58    282
78.6     282
78.62    303
78.64    272
78.66    296
78.68    377
78.7     379
78.72    392
78.74    439
78.76    383
78.78    346
78.8     348
78.82    339
78.84    370
78.86    388
78.88    398
78.9     328
78.92    362
78.94    382
78.96    358
78.98    320
79.0     312
79.02    344
79.04    401
79.06    387
79.08    358
79.1     342
79.12    414
79.14    455
79.16    440
79.18    416
79.2     406
79.22    368
79.24    338
79.26    282
79.28    278
79.3     304
79.32    375
79.34    424
79.36    454
79.38    494
79.4     501
79.42    460
79.44    431
79.46    415
79.48    426
79.5     414
79.52    389
79.54    372
79.56    360
79.58    275
79.6     247
79.62    223
79.64    176
79.66    176
79.68    225
79.7     228
79.72    267
79.74    245
79.76    275
79.78    269
79.8     335
79.82    391
79.84    395
79.86    405
79.88    491
79.9     538
79.92    516
79.94    475
79.96    538
79.98    592
80.0     648
80.02    684
80.04    629
80.06    558
80.08    511
80.1     472
80.12    348
80.14    269
80.16    308
80.18    357
80.2     358
80.22    400
80.24    387
80.26    405
80.28    389
80.3     436
80.32    476
80.34    448
80.36    450
80.38    393
80.4     303
80.42    281
80.44    274
80.46    302
80.48    278
80.5     328
80.52    351
80.54    409
80.56    366
80.58    349
80.6     335
80.62    336
80.64    322
80.66    303
80.68    194
80.7     182
80.72    177
80.74    264
80.76    243
80.78    260
80.8     284
80.82    252
80.84    255
80.86    274
80.88    285
80.9     347
80.92    408
80.94    423
80.96    464
80.98    467
81.0     480
81.02    453
81.04    460
81.06    460
81.08    425
81.1     365
81.12    263
81.14    194
81.16    140
81.18    100
81.2     94
81.22    114
81.24    169
81.26    163
81.28    178
81.3     212
81.32    221
81.34    287
81.36    315
81.38    358
81.4     422
81.42    483
81.44    524
81.46    456
81.48    459
81.5     490
81.52    448
81.54    382
81.56    307
81.58    271
81.6     288
81.62    275
81.64    205
81.66    198
81.68    258
81.7     338
81.72    291
81.74    204
81.76    169
81.78    244
81.8     222
81.82    230
81.84    222
81.86    266
81.88    314
81.9     400
81.92    384
81.94    374
81.96    412
81.98    478
82.0     428
82.02    362
82.04    283
82.06    220
82.08    181
82.1     188
82.12    177
82.14    199
82.16    219
82.18    237
82.2     312
82.22    284
82.24    306
82.26    369
82.28    393
82.3     371
82.32    338
82.34    348
82.36    332
82.38    250
82.4     341
82.42    305
82.44    313
82.46    270
82.48    299
82.5     269
82.52    290
82.54    359
82.56    363
82.58    301
82.6     355
82.62    360
82.64    367
82.66    289
82.68    313
82.7     275
82.72    280
82.74    207
82.76    163
82.78    142
82.8     195
82.82    258
82.84    276
82.86    208
82.88    166
82.9     116
82.92    124
82.94    100
82.96    175
82.98    252
83.0     354
83.02    467
83.04    457
83.06    368
83.08    323
83.1     334
83.12    329
83.14    291
83.16    321
83.18    301
83.2     296
83.22    252
83.24    131
83.26    75
83.28    44
83.3     51
83.32    56
83.34    80
83.36    130
83.38    152
83.4     225
83.42    245
83.44    289
83.46    357
83.48    370
83.5     393
83.52    415
83.54    392
83.56    248
83.58    163
83.6     188
83.62    209
83.64    195
83.66    281
83.68    379
83.7     431
83.72    485
83.74    460
83.76    448
83.78    403
83.8     424
83.82    429
83.84    402
83.86    451
83.88    466
83.9     436
83.92    373
83.94    300
83.96    305
83.98    195
84.0     192
84.02    144
84.04    168
84.06    193
84.08    231
84.1     271
84.12    241
84.14    229
84.16    215
84.18    222
84.2     245
84.22    211
84.24    282
84.26    319
84.28    364
84.3     389
84.32    368
84.34    327
84.36    277
84.38    255
84.4     210
84.42    187
84.44    247
84.46    226
84.48    244
84.5     239
84.52    232
84.54    121
84.56    73
84.58    118
84.6     154
84.62    232
84.64    338
84.66    401
84.68    541
84.7     617
84.72    648
84.74    596
84.76    700
84.78    726
84.8     697
84.82    630
84.84    511
84.86    455
84.88    370
84.9     287
84.92    240
84.94    225
84.96    295
84.98    299
85.0     338
85.02    322
85.04    281
85.06    288
85.08    267
85.1     280
85.12    242
85.14    271
85.16    323
85.18    326
85.2     329
85.22    344
85.24    328
85.26    324
85.28    350
85.3     368
85.32    335
85.34    363
85.36    345
85.38    312
85.4     251
85.42    250
85.44    168
85.46    115
85.48    68
85.5     60
85.52    72
85.54    55
85.56    75
85.58    161
85.6     209
85.62    270
85.64    275
85.66    290
85.68    292
85.7     324
85.72    327
85.74    352
85.76    397
85.78    460
85.8     501
85.82    422
85.84    357
85.86    327
85.88    268
85.9     184
85.92    154
85.94    191
85.96    233
85.98    263
86.0     257
86.02    165
86.04    191
86.06    251
86.08    247
86.1     238
86.12    278
86.14    313
86.16    346
86.18    439
86.2     440
86.22    402
86.24    461
86.26    521
86.28    536
86.3     518
86.32    511
86.34    625
86.36    772
86.38    1108
86.4     1357
86.42    1601
86.44    1814
86.46    1891
86.48    1854
86.5     1671
86.52    1398
86.54    1146
86.56    965
86.58    880
86.6     768
86.62    732
86.64    629
86.66    567
86.68    600
86.7     536
86.72    490
86.74    425
86.76    463
86.78    480
86.8     460
86.82    424
86.84    302
86.86    237
86.88    201
86.9     168
86.92    196
86.94    159
86.96    180
86.98    285
87.0     259
87.02    234
87.04    164
87.06    115
87.08    111
87.1     158
87.12    256
87.14    308
87.16    308
87.18    334
87.2     257
87.22    236
87.24    233
87.26    256
87.28    313
87.3     378
87.32    490
87.34    501
87.36    432
87.38    371
87.4     317
87.42    227
87.44    267
87.46    281
87.48    281
87.5     265
87.52    266
87.54    235
87.56    226
87.58    195
87.6     210
87.62    194
87.64    228
87.66    282
87.68    280
87.7     306
87.72    299
87.74    280
87.76    317
87.78    304
87.8     359
87.82    367
87.84    393
87.86    454
87.88    435
87.9     399
87.92    331
87.94    243
87.96    245
87.98    238
88.0     244
88.02    288
88.04    335
88.06    355
88.08    321
88.1     238
88.12    231
88.14    163
88.16    218
88.18    221
88.2     251
88.22    327
88.24    360
88.26    381
88.28    365
88.3     305
88.32    260
88.34    188
88.36    162
88.38    171
88.4     225
88.42    243
88.44    275
88.46    327
88.48    323
88.5     250
88.52    174
88.54    139
88.56    122
88.58    221
88.6     221
88.62    191
88.64    203
88.66    213
88.68    154
88.7     150
88.72    150
88.74    126
88.76    197
88.78    267
88.8     277
88.82    282
88.84    290
88.86    325
88.88    403
88.9     420
88.92    388
88.94    365
88.96    417
88.98    390
89.0     388
89.02    405
89.04    380
89.06    391
89.08    372
89.1     253
89.12    237
89.14    275
89.16    265
89.18    272
89.2     340
89.22    357
89.24    325
89.26    303
89.28    239
89.3     116
89.32    175
89.34    202
89.36    201
89.38    292
89.4     310
89.42    250
89.44    264
89.46    211
89.48    144
89.5     58
89.52    74
89.54    101
89.56    160
89.58    285
89.6     332
89.62    361
89.64    379
89.66    281
89.68    267
89.7     275
89.72    201
89.74    250
89.76    256
89.78    327
89.8     402
89.82    350
89.84    285
89.86    259
89.88    250
89.9     210
89.92    161
89.94    166
89.96    255
89.98    254
90.0     281
