?
5.0      811
5.02     811
5.04     1053
5.06     971
5.08     1011
5.1      988
5.12     1006
5.14     1016
5.16     1044
5.18     1025
5.2      1027
5.22     1014
5.24     1000
5.26     975
5.28     948
5.3      943
5.32     907
5.34     921
5.36     916
5.38     934
5.4      948
5.42     954
5.44     954
5.46     997
5.48     1029
5.5      1032
5.52     1021
5.54     1020
5.56     1014
5.58     1034
5.6      1021
5.62     989
5.64     1011
5.66     1023
5.68     1043
5.7      1023
5.72     991
5.74     983
5.76     1013
5.78     990
5.8      986
5.82     995
5.84     984
5.86     996
5.88     1013
5.9      1039
5.92     1004
5.94     1063
5.96     1052
5.98     1015
6.0      1030
6.02     1026
6.04     993
6.06     993
6.08     995
6.1      1027
6.12     999
6.14     1044
6.16     1028
6.18     1011
6.2      1013
6.22     1012
6.24     1026
6.26     992
6.28     1006
6.3      1017
6.32     1020
6.34     1007
6.36     967
6.38     946
6.4      907
6.42     909
6.44     919
6.46     896
6.48     891
6.5      924
6.52     902
6.54     908
6.56     859
6.58     894
6.6      876
6.62     914
6.64     939
6.66     949
6.68     938
6.7      963
6.72     909
6.74     927
6.76     884
6.78     921
6.8      936
6.82     1016
6.84     1017
6.86     1036
6.88     1005
6.9      999
6.92     975
6.94     955
6.96     939
6.98     959
7.0      959
7.02     995
7.04     938
7.06     965
7.08     932
7.1      970
7.12     982
7.14     975
7.16     953
7.18     947
7.2      929
7.22     903
7.24     893
7.26     913
7.28     875
7.3      956
7.32     947
7.34     954
7.36     939
7.38     952
7.4      943
7.42     943
7.44     942
7.46     872
7.48     849
7.5      906
7.52     894
7.54     906
7.56     948
7.58     959
7.6      966
7.62     960
7.64     918
7.66     881
7.68     935
7.7      967
7.72     979
7.74     961
7.76     965
7.78     949
7.8      917
7.82     887
7.84     880
7.86     860
7.88     908
7.9      906
7.92     872
7.94     891
7.96     912
7.98     956
8.0      920
8.02     958
8.04     889
8.06     856
8.08     851
8.1      844
8.12     853
8.14     894
8.16     949
8.18     1008
8.2      994
8.22     1015
8.24     959
8.26     939
8.28     861
8.3      870
8.32     865
8.34     845
8.36     932
8.38     961
8.4      980
8.42     989
8.44     989
8.46     965
8.48     898
8.5      886
8.52     886
8.54     890
8.56     881
8.58     862
8.6      844
8.62     845
8.64     844
8.66     874
8.68     882
8.7      943
8.72     934
8.74     927
8.76     873
8.78     853
8.8      814
8.82     782
8.84     798
8.86     798
8.88     804
8.9      847
8.92     794
8.94     825
8.96     833
8.98     804
9.0      804
9.02     799
9.04     773
9.06     800
9.08     731
9.1      746
9.12     711
9.14     731
9.16     767
9.18     730
9.2      749
9.22     724
9.24     673
9.26     734
9.28     712
9.3      725
9.32     728
9.34     724
9.36     734
9.38     679
9.4      667
9.42     664
9.44     663
9.46     711
9.48     732
9.5      708
9.52     684
9.54     651
9.56     621
9.58     601
9.6      640
9.62     664
9.64     651
9.66     676
9.68     692
9.7      665
9.72     642
9.74     665
9.76     629
9.78     656
9.8      687
9.82     685
9.84     645
9.86     613
9.88     609
9.9      558
9.92     519
9.94     517
9.96     507
9.98     516
10.0     587
10.02    612
10.04    613
10.06    624
10.08    659
10.1     641
10.12    631
10.14    634
10.16    647
10.18    578
10.2     598
10.22    538
10.24    540
10.26    572
10.28    512
10.3     523
10.32    558
10.34    537
10.36    551
10.38    562
10.4     562
10.42    514
10.44    541
10.46    534
10.48    492
10.5     581
10.52    603
10.54    616
10.56    638
10.58    664
10.6     614
10.62    598
10.64    614
10.66    502
10.68    494
10.7     535
10.72    543
10.74    539
10.76    570
10.78    587
10.8     612
10.82    665
10.84    621
10.86    538
10.88    578
10.9     557
10.92    520
10.94    490
10.96    540
10.98    523
11.0     526
11.02    536
11.04    518
11.06    579
11.08    610
11.1     583
11.12    626
11.14    648
11.16    635
11.18    598
11.2     637
11.22    642
11.24    656
11.26    648
11.28    608
11.3     516
11.32    534
11.34    483
11.36    415
11.38    451
11.4     528
11.42    541
11.44    578
11.46    585
11.48    565
11.5     514
11.52    560
11.54    515
11.56    518
11.58    538
11.6     578
11.62    587
11.64    605
11.66    596
11.68    573
11.7     576
11.72    562
11.74    570
11.76    584
11.78    590
11.8     581
11.82    577
11.84    605
11.86    563
11.88    600
11.9     608
11.92    598
11.94    615
11.96    619
11.98    628
12.0     607
12.02    657
12.04    631
12.06    563
12.08    600
12.1     608
12.12    582
12.14    512
12.16    523
12.18    582
12.2     630
12.22    636
12.24    588
12.26    545
12.28    553
12.3     597
12.32    569
12.34    501
12.36    529
12.38    608
12.4     637
12.42    620
12.44    627
12.46    570
12.48    617
12.5     661
12.52    626
12.54    644
12.56    681
12.58    713
12.6     711
12.62    658
12.64    591
12.66    517
12.68    555
12.7     562
12.72    551
12.74    621
12.76    655
12.78    654
12.8     672
12.82    674
12.84    612
12.86    545
12.88    531
12.9     544
12.92    548
12.94    555
12.96    551
12.98    524
13.0     591
13.02    609
13.04    535
13.06    501
13.08    521
13.1     525
13.12    518
13.14    589
13.16    620
13.18    620
13.2     619
13.22    630
13.24    622
13.26    554
13.28    535
13.3     488
13.32    512
13.34    599
13.36    622
13.38    650
13.4     664
13.42    710
13.44    715
13.46    654
13.48    664
13.5     651
13.52    660
13.54    630
13.56    674
13.58    703
13.6     674
13.62    693
13.64    734
13.66    754
13.68    727
13.7     686
13.72    699
13.74    668
13.76    702
13.78    740
13.8     732
13.82    761
13.84    816
13.86    844
13.88    791
13.9     721
13.92    701
13.94    697
13.96    704
13.98    690
14.0     677
14.02    696
14.04    762
14.06    832
14.08    779
14.1     745
14.12    733
14.14    702
14.16    692
14.18    715
14.2     769
14.22    788
14.24    800
14.26    827
14.28    824
14.3     810
14.32    790
14.34    724
14.36    725
14.38    700
14.4     778
14.42    836
14.44    818
14.46    780
14.48    844
14.5     878
14.52    853
14.54    756
14.56    716
14.58    758
14.6     844
14.62    823
14.64    790
14.66    764
14.68    842
14.7     877
14.72    808
14.74    762
14.76    855
14.78    898
14.8     803
14.82    771
14.84    817
14.86    861
14.88    934
14.9     1033
14.92    1097
14.94    1172
14.96    1195
14.98    1117
15.0     1046
15.02    1016
15.04    961
15.06    903
15.08    867
15.1     945
15.12    944
15.14    964
15.16    985
15.18    949
15.2     909
15.22    937
15.24    916
15.26    849
15.28    836
15.3     901
15.32    828
15.34    854
15.36    878
15.38    845
15.4     835
15.42    889
15.44    903
15.46    910
15.48    934
15.5     945
15.52    884
15.54    872
15.56    823
15.58    822
15.6     828
15.62    912
15.64    959
15.66    949
15.68    959
15.7     1004
15.72    987
15.74    970
15.76    995
15.78    1013
15.8     992
15.82    1049
15.84    1085
15.86    1045
15.88    1012
15.9     1048
15.92    1049
15.94    1075
15.96    1179
15.98    1243
16.0     1270
16.02    1385
16.04    1506
16.06    1546
16.08    1565
16.1     1619
16.12    1679
16.14    1739
16.16    1861
16.18    1968
16.2     2124
16.22    2340
16.24    2530
16.26    2783
16.28    3086
16.3     3472
16.32    4089
16.34    4808
16.36    5647
16.38    6747
16.4     8231
16.42    10148
16.44    12542
16.46    15974
16.48    20891
16.5     28564
16.52    40584
16.54    54070
16.56    63522
16.58    66576
16.6     62974
16.62    53519
16.64    39940
16.66    24790
16.68    11087
16.7     2218
16.72    1291
16.74    995
16.76    1106
16.78    1844
16.8     2122
16.82    1700
16.84    1411
16.86    1410
16.88    1493
16.9     1457
16.92    1352
16.94    1341
16.96    1283
16.98    1205
17.0     1168
17.02    1149
17.04    1125
17.06    1139
17.08    1138
17.1     1105
17.12    1084
17.14    1130
17.16    1126
17.18    1145
17.2     1132
17.22    1077
17.24    1031
17.26    1066
17.28    1093
17.3     1091
17.32    1059
17.34    1070
17.36    1091
17.38    1099
17.4     995
17.42    900
17.44    868
17.46    899
17.48    910
17.5     895
17.52    841
17.54    882
17.56    945
17.58    947
17.6     854
17.62    853
17.64    862
17.66    826
17.68    801
17.7     842
17.72    854
17.74    824
17.76    807
17.78    787
17.8     783
17.82    792
17.84    796
17.86    754
17.88    738
17.9     770
17.92    784
17.94    717
17.96    700
17.98    738
18.0     815
18.02    829
18.04    869
18.06    822
18.08    733
18.1     710
18.12    687
18.14    732
18.16    734
18.18    779
18.2     836
18.22    819
18.24    841
18.26    743
18.28    617
18.3     570
18.32    616
18.34    706
18.36    685
18.38    711
18.4     725
18.42    724
18.44    691
18.46    595
18.48    531
18.5     566
18.52    662
18.54    610
18.56    623
18.58    697
18.6     784
18.62    760
18.64    674
18.66    662
18.68    678
18.7     721
18.72    766
18.74    701
18.76    689
18.78    707
18.8     734
18.82    700
18.84    628
18.86    599
18.88    650
18.9     723
18.92    731
18.94    723
18.96    704
18.98    733
19.0     759
19.02    766
19.04    762
19.06    745
19.08    727
19.1     689
19.12    636
19.14    652
19.16    667
19.18    695
19.2     692
19.22    730
19.24    718
19.26    662
19.28    580
19.3     587
19.32    628
19.34    645
19.36    695
19.38    679
19.4     665
19.42    659
19.44    575
19.46    527
19.48    545
19.5     603
19.52    620
19.54    640
19.56    646
19.58    641
19.6     649
19.62    647
19.64    591
19.66    564
19.68    589
19.7     568
19.72    544
19.74    551
19.76    528
19.78    535
19.8     522
19.82    581
19.84    598
19.86    616
19.88    569
19.9     528
19.92    520
19.94    522
19.96    524
19.98    478
20.0     498
20.02    621
20.04    699
20.06    662
20.08    599
20.1     631
20.12    654
20.14    609
20.16    537
20.18    466
20.2     437
20.22    491
20.24    499
20.26    449
20.28    469
20.3     528
20.32    538
20.34    492
20.36    521
20.38    523
20.4     557
20.42    552
20.44    567
20.46    600
20.48    630
20.5     704
20.52    709
20.54    661
20.56    707
20.58    665
20.6     684
20.62    580
20.64    605
20.66    637
20.68    620
20.7     661
20.72    630
20.74    565
20.76    595
20.78    599
20.8     628
20.82    557
20.84    573
20.86    582
20.88    587
20.9     603
20.92    540
20.94    449
20.96    457
20.98    463
21.0     527
21.02    545
21.04    609
21.06    656
21.08    703
21.1     726
21.12    657
21.14    570
21.16    536
21.18    540
21.2     621
21.22    612
21.24    598
21.26    606
21.28    639
21.3     665
21.32    617
21.34    535
21.36    478
21.38    507
21.4     530
21.42    546
21.44    554
21.46    583
21.48    599
21.5     624
21.52    635
21.54    573
21.56    511
21.58    449
21.6     435
21.62    536
21.64    519
21.66    514
21.68    498
21.7     476
21.72    456
21.74    474
21.76    461
21.78    427
21.8     474
21.82    529
21.84    505
21.86    487
21.88    445
21.9     368
21.92    426
21.94    509
21.96    461
21.98    404
22.0     385
22.02    397
22.04    441
22.06    474
22.08    508
22.1     535
22.12    621
22.14    574
22.16    441
22.18    375
22.2     380
22.22    404
22.24    460
22.26    520
22.28    538
22.3     493
22.32    468
22.34    455
22.36    453
22.38    499
22.4     451
22.42    455
22.44    463
22.46    480
22.48    451
22.5     435
22.52    448
22.54    497
22.56    476
22.58    512
22.6     444
22.62    404
22.64    329
22.66    342
22.68    390
22.7     446
22.72    491
22.74    544
22.76    516
22.78    536
22.8     471
22.82    421
22.84    419
22.86    476
22.88    511
22.9     533
22.92    617
22.94    616
22.96    538
22.98    457
23.0     361
23.02    372
23.04    429
23.06    471
23.08    439
23.1     389
23.12    432
23.14    416
23.16    436
23.18    442
23.2     436
23.22    470
23.24    526
23.26    511
23.28    481
23.3     417
23.32    429
23.34    462
23.36    509
23.38    515
23.4     508
23.42    486
23.44    463
23.46    459
23.48    478
23.5     480
23.52    487
23.54    512
23.56    514
23.58    477
23.6     444
23.62    433
23.64    398
23.66    389
23.68    420
23.7     469
23.72    507
23.74    530
23.76    485
23.78    410
23.8     298
23.82    317
23.84    351
23.86    408
23.88    455
23.9     489
23.92    522
23.94    564
23.96    502
23.98    444
24.0     344
24.02    451
24.04    480
24.06    482
24.08    428
24.1     460
24.12    462
24.14    476
24.16    472
24.18    413
24.2     432
24.22    460
24.24    426
24.26    375
24.28    334
24.3     330
24.32    367
24.34    386
24.36    429
24.38    336
24.4     340
24.42    308
24.44    375
24.46    351
24.48    352
24.5     366
24.52    451
24.54    499
24.56    460
24.58    390
24.6     336
24.62    343
24.64    422
24.66    424
24.68    521
24.7     556
24.72    576
24.74    517
24.76    432
24.78    410
24.8     395
24.82    394
24.84    428
24.86    437
24.88    463
24.9     474
24.92    418
24.94    368
24.96    378
24.98    368
25.0     381
25.02    353
25.04    358
25.06    365
25.08    320
25.1     339
25.12    350
25.14    418
25.16    464
25.18    462
25.2     423
25.22    415
25.24    395
25.26    436
25.28    450
25.3     440
25.32    508
25.34    522
25.36    550
25.38    524
25.4     479
25.42    429
25.44    341
25.46    310
25.48    307
25.5     302
25.52    379
25.54    393
25.56    408
25.58    403
25.6     475
25.62    449
25.64    454
25.66    462
25.68    463
25.7     480
25.72    425
25.74    343
25.76    300
25.78    296
25.8     335
25.82    316
25.84    390
25.86    442
25.88    481
25.9     467
25.92    409
25.94    386
25.96    419
25.98    429
26.0     394
26.02    372
26.04    352
26.06    335
26.08    325
26.1     359
26.12    418
26.14    410
26.16    392
26.18    371
26.2     344
26.22    389
26.24    328
26.26    288
26.28    279
26.3     407
26.32    497
26.34    543
26.36    501
26.38    491
26.4     446
26.42    407
26.44    302
26.46    258
26.48    225
26.5     300
26.52    359
26.54    406
26.56    350
26.58    357
26.6     347
26.62    373
26.64    397
26.66    397
26.68    383
26.7     431
26.72    394
26.74    372
26.76    311
26.78    268
26.8     310
26.82    370
26.84    400
26.86    401
26.88    377
26.9     391
26.92    378
26.94    421
26.96    444
26.98    423
27.0     403
27.02    345
27.04    299
27.06    296
27.08    344
27.1     401
27.12    408
27.14    401
27.16    414
27.18    354
27.2     340
27.22    334
27.24    327
27.26    421
27.28    464
27.3     474
27.32    407
27.34    361
27.36    352
27.38    306
27.4     317
27.42    294
27.44    277
27.46    350
27.48    328
27.5     361
27.52    369
27.54    412
27.56    425
27.58    426
27.6     347
27.62    386
27.64    381
27.66    456
27.68    484
27.7     450
27.72    478
27.74    462
27.76    447
27.78    472
27.8     405
27.82    433
27.84    325
27.86    316
27.88    290
27.9     274
27.92    380
27.94    416
27.96    439
27.98    447
28.0     413
28.02    389
28.04    311
28.06    269
28.08    196
28.1     307
28.12    404
28.14    423
28.16    451
28.18    435
28.2     433
28.22    446
28.24    368
28.26    366
28.28    323
28.3     440
28.32    423
28.34    395
28.36    394
28.38    363
28.4     342
28.42    312
28.44    303
28.46    358
28.48    385
28.5     428
28.52    429
28.54    387
28.56    346
28.58    304
28.6     279
28.62    274
28.64    265
28.66    207
28.68    217
28.7     185
28.72    236
28.74    195
28.76    238
28.78    262
28.8     287
28.82    354
28.84    329
28.86    301
28.88    330
28.9     297
28.92    354
28.94    319
28.96    315
28.98    274
29.0     277
29.02    344
29.04    370
29.06    401
29.08    441
29.1     411
29.12    413
29.14    404
29.16    398
29.18    426
29.2     458
29.22    464
29.24    495
29.26    525
29.28    464
29.3     409
29.32    356
29.34    312
29.36    350
29.38    312
29.4     242
29.42    219
29.44    243
29.46    259
29.48    307
29.5     380
29.52    433
29.54    436
29.56    399
29.58    307
29.6     248
29.62    266
29.64    266
29.66    288
29.68    327
29.7     372
29.72    392
29.74    367
29.76    284
29.78    243
29.8     259
29.82    254
29.84    301
29.86    331
29.88    355
29.9     481
29.92    498
29.94    501
29.96    443
29.98    331
30.0     321
30.02    258
30.04    304
30.06    365
30.08    396
30.1     436
30.12    396
30.14    299
30.16    248
30.18    224
30.2     282
30.22    361
30.24    459
30.26    551
30.28    487
30.3     430
30.32    303
30.34    164
30.36    206
30.38    246
30.4     304
30.42    386
30.44    396
30.46    401
30.48    344
30.5     265
30.52    180
30.54    172
30.56    246
30.58    318
30.6     374
30.62    397
30.64    368
30.66    359
30.68    369
30.7     361
30.72    369
30.74    342
30.76    308
30.78    344
30.8     385
30.82    446
30.84    420
30.86    362
30.88    306
30.9     223
30.92    181
30.94    173
30.96    208
30.98    270
31.0     344
31.02    374
31.04    336
31.06    337
31.08    300
31.1     300
31.12    368
31.14    395
31.16    416
31.18    384
31.2     354
31.22    335
31.24    344
31.26    401
31.28    428
31.3     467
31.32    448
31.34    407
31.36    389
31.38    351
31.4     316
31.42    322
31.44    316
31.46    320
31.48    340
31.5     350
31.52    323
31.54    343
31.56    337
31.58    312
31.6     331
31.62    303
31.64    297
31.66    319
31.68    292
31.7     287
31.72    254
31.74    239
31.76    305
31.78    361
31.8     448
31.82    388
31.84    328
31.86    265
31.88    205
31.9     248
31.92    325
31.94    408
31.96    505
31.98    544
32.0     504
32.02    397
32.04    255
32.06    133
32.08    151
32.1     230
32.12    335
32.14    461
32.16    510
32.18    593
32.2     578
32.22    529
32.24    464
32.26    389
32.28    399
32.3     438
32.32    436
32.34    546
32.36    608
32.38    641
32.4     653
32.42    619
32.44    555
32.46    507
32.48    486
32.5     494
32.52    465
32.54    503
32.56    489
32.58    457
32.6     465
32.62    448
32.64    392
32.66    429
32.68    477
32.7     474
32.72    475
32.74    439
32.76    444
32.78    433
32.8     451
32.82    552
32.84    593
32.86    670
32.88    713
32.9     629
32.92    571
32.94    464
32.96    378
32.98    335
33.0     375
33.02    460
33.04    489
33.06    524
33.08    573
33.1     557
33.12    470
33.14    399
33.16    326
33.18    301
33.2     337
33.22    402
33.24    472
33.26    518
33.28    632
33.3     709
33.32    805
33.34    897
33.36    950
33.38    1052
33.4     1280
33.42    1498
33.44    2027
33.46    3085
33.48    5233
33.5     8652
33.52    12695
33.54    15905
33.56    17524
33.58    17262
33.6     15354
33.62    12044
33.64    8117
33.66    4401
33.68    1846
33.7     836
33.72    752
33.74    782
33.76    720
33.78    636
33.8     667
33.82    650
33.84    620
33.86    610
33.88    575
33.9     491
33.92    409
33.94    352
33.96    365
33.98    398
34.0     493
34.02    604
34.04    698
34.06    700
34.08    702
34.1     552
34.12    464
34.14    392
34.16    360
34.18    329
34.2     467
34.22    533
34.24    576
34.26    570
34.28    597
34.3     573
34.32    586
34.34    578
34.36    534
34.38    465
34.4     492
34.42    441
34.44    413
34.46    388
34.48    427
34.5     466
34.52    525
34.54    546
34.56    509
34.58    490
34.6     521
34.62    526
34.64    525
34.66    504
34.68    505
34.7     469
34.72    482
34.74    411
34.76    337
34.78    327
34.8     377
34.82    455
34.84    553
34.86    602
34.88    709
34.9     712
34.92    801
34.94    839
34.96    934
34.98    1094
35.0     1422
35.02    2124
35.04    3814
35.06    6672
35.08    10098
35.1     12824
35.12    14388
35.14    14470
35.16    13143
35.18    10588
35.2     7359
35.22    4182
35.24    2066
35.26    1182
35.28    1037
35.3     929
35.32    822
35.34    768
35.36    774
35.38    801
35.4     816
35.42    763
35.44    759
35.46    702
35.48    700
35.5     654
35.52    571
35.54    534
35.56    517
35.58    517
35.6     498
35.62    557
35.64    609
35.66    590
35.68    640
35.7     605
35.72    523
35.74    509
35.76    498
35.78    466
35.8     509
35.82    557
35.84    570
35.86    569
35.88    575
35.9     528
35.92    487
35.94    457
35.96    486
35.98    420
36.0     442
36.02    464
36.04    544
36.06    589
36.08    656
36.1     686
36.12    678
36.14    713
36.16    734
36.18    711
36.2     775
36.22    904
36.24    1055
36.26    1151
36.28    1312
36.3     1444
36.32    1653
36.34    1958
36.36    2566
36.38    4021
36.4     7638
36.42    14121
36.44    21741
36.46    28084
36.48    31700
36.5     31915
36.52    28879
36.54    23119
36.56    15768
36.58    8489
36.6     3590
36.62    1699
36.64    1281
36.66    1199
36.68    1077
36.7     941
36.72    912
36.74    963
36.76    895
36.78    873
36.8     849
36.82    830
36.84    801
36.86    804
36.88    707
36.9     631
36.92    593
36.94    574
36.96    570
36.98    692
37.0     790
37.02    919
37.04    1049
37.06    1130
37.08    1181
37.1     1229
37.12    1285
37.14    1279
37.16    1270
37.18    1162
37.2     1092
37.22    943
37.24    842
37.26    776
37.28    799
37.3     792
37.32    879
37.34    966
37.36    1031
37.38    1070
37.4     1084
37.42    966
37.44    827
37.46    723
37.48    596
37.5     486
37.52    454
37.54    504
37.56    508
37.58    549
37.6     535
37.62    528
37.64    481
37.66    507
37.68    483
37.7     556
37.72    555
37.74    615
37.76    607
37.78    607
37.8     564
37.82    585
37.84    570
37.86    575
37.88    579
37.9     656
37.92    555
37.94    550
37.96    477
37.98    469
38.0     371
38.02    410
38.04    397
38.06    397
38.08    440
38.1     517
38.12    432
38.14    465
38.16    441
38.18    457
38.2     398
38.22    489
38.24    544
38.26    490
38.28    524
38.3     545
38.32    422
38.34    361
38.36    293
38.38    242
38.4     211
38.42    368
38.44    477
38.46    445
38.48    540
38.5     536
38.52    438
38.54    399
38.56    396
38.58    378
38.6     401
38.62    480
38.64    533
38.66    511
38.68    512
38.7     496
38.72    460
38.74    426
38.76    415
38.78    360
38.8     375
38.82    342
38.84    352
38.86    374
38.88    395
38.9     420
38.92    462
38.94    458
38.96    406
38.98    364
39.0     429
39.02    375
39.04    360
39.06    482
39.08    489
39.1     488
39.12    570
39.14    597
39.16    452
39.18    380
39.2     365
39.22    237
39.24    206
39.26    291
39.28    337
39.3     409
39.32    531
39.34    539
39.36    469
39.38    481
39.4     445
39.42    349
39.44    320
39.46    307
39.48    314
39.5     280
39.52    334
39.54    325
39.56    316
39.58    361
39.6     416
39.62    427
39.64    428
39.66    429
39.68    407
39.7     449
39.72    496
39.74    485
39.76    475
39.78    541
39.8     570
39.82    514
39.84    474
39.86    440
39.88    365
39.9     355
39.92    313
39.94    375
39.96    475
39.98    562
40.0     642
40.02    731
40.04    797
40.06    803
40.08    787
40.1     772
40.12    666
40.14    656
40.16    616
40.18    625
40.2     695
40.22    768
40.24    815
40.26    809
40.28    853
40.3     815
40.32    692
40.34    666
40.36    621
40.38    655
40.4     710
40.42    772
40.44    809
40.46    828
40.48    857
40.5     860
40.52    747
40.54    677
40.56    617
40.58    586
40.6     588
40.62    645
40.64    723
40.66    834
40.68    922
40.7     998
40.72    900
40.74    860
40.76    811
40.78    724
40.8     669
40.82    664
40.84    713
40.86    743
40.88    844
40.9     910
40.92    897
40.94    916
40.96    983
40.98    961
41.0     981
41.02    1008
41.04    1083
41.06    1131
41.08    1198
41.1     1235
41.12    1216
41.14    1313
41.16    1365
41.18    1354
41.2     1419
41.22    1493
41.24    1583
41.26    1840
41.28    2093
41.3     2586
41.32    3056
41.34    3636
41.36    4113
41.38    4706
41.4     5520
41.42    6913
41.44    10347
41.46    20486
41.48    42025
41.5     71507
41.52    98478
41.54    115461
41.56    119459
41.58    110785
41.6     91362
41.62    64089
41.64    35216
41.66    13696
41.68    4710
41.7     3648
41.72    3741
41.74    3051
41.76    2086
41.78    1692
41.8     1867
41.82    1841
41.84    1798
41.86    1828
41.88    1835
41.9     1575
41.92    1328
41.94    1157
41.96    992
41.98    934
42.0     863
42.02    839
42.04    865
42.06    911
42.08    1024
42.1     1087
42.12    1143
42.14    1107
42.16    1057
42.18    1039
42.2     918
42.22    810
42.24    769
42.26    810
42.28    889
42.3     945
42.32    988
42.34    930
42.36    858
42.38    806
42.4     706
42.42    646
42.44    593
42.46    637
42.48    679
42.5     719
42.52    751
42.54    741
42.56    812
42.58    762
42.6     738
42.62    774
42.64    745
42.66    722
42.68    696
42.7     702
42.72    662
42.74    616
42.76    632
42.78    552
42.8     561
42.82    654
42.84    718
42.86    773
42.88    793
42.9     793
42.92    754
42.94    659
42.96    581
42.98    515
43.0     553
43.02    631
43.04    743
43.06    990
43.08    1236
43.1     1571
43.12    1851
43.14    2033
43.16    2119
43.18    2032
43.2     1887
43.22    1554
43.24    1207
43.26    956
43.28    774
43.3     751
43.32    722
43.34    753
43.36    736
43.38    718
43.4     667
43.42    559
43.44    489
43.46    479
43.48    493
43.5     531
43.52    563
43.54    571
43.56    574
43.58    613
43.6     627
43.62    605
43.64    622
43.66    634
43.68    558
43.7     530
43.72    520
43.74    514
43.76    525
43.78    568
43.8     662
43.82    686
43.84    721
43.86    726
43.88    617
43.9     581
43.92    535
43.94    487
43.96    387
43.98    391
44.0     454
44.02    405
44.04    351
44.06    350
44.08    356
44.1     380
44.12    372
44.14    420
44.16    485
44.18    580
44.2     628
44.22    590
44.24    633
44.26    681
44.28    637
44.3     558
44.32    456
44.34    474
44.36    467
44.38    447
44.4     504
44.42    555
44.44    608
44.46    600
44.48    598
44.5     588
44.52    491
44.54    471
44.56    475
44.58    483
44.6     514
44.62    511
44.64    542
44.66    581
44.68    610
44.7     564
44.72    542
44.74    520
44.76    506
44.78    455
44.8     452
44.82    517
44.84    571
44.86    600
44.88    644
44.9     672
44.92    762
44.94    871
44.96    1170
44.98    1682
45.0     2221
45.02    2625
45.04    2735
45.06    2641
45.08    2360
45.1     1900
45.12    1396
45.14    958
45.16    750
45.18    729
45.2     751
45.22    747
45.24    687
45.26    675
45.28    703
45.3     724
45.32    672
45.34    626
45.36    622
45.38    594
45.4     561
45.42    545
45.44    580
45.46    607
45.48    576
45.5     577
45.52    550
45.54    526
45.56    495
45.58    463
45.6     416
45.62    397
45.64    402
45.66    403
45.68    357
45.7     353
45.72    389
45.74    417
45.76    466
45.78    506
45.8     553
45.82    623
45.84    663
45.86    673
45.88    648
45.9     591
45.92    540
45.94    443
45.96    400
45.98    369
46.0     433
46.02    428
46.04    446
46.06    513
46.08    543
46.1     561
46.12    534
46.14    532
46.16    524
46.18    461
46.2     497
46.22    424
46.24    453
46.26    452
46.28    438
46.3     484
46.32    493
46.34    537
46.36    499
46.38    421
46.4     458
46.42    457
46.44    448
46.46    469
46.48    495
46.5     515
46.52    521
46.54    544
46.56    542
46.58    527
46.6     552
46.62    574
46.64    598
46.66    587
46.68    549
46.7     499
46.72    450
46.74    422
46.76    391
46.78    442
46.8     480
46.82    519
46.84    541
46.86    520
46.88    485
46.9     452
46.92    446
46.94    408
46.96    394
46.98    440
47.0     481
47.02    532
47.04    520
47.06    591
47.08    565
47.1     534
47.12    517
47.14    396
47.16    298
47.18    190
47.2     156
47.22    194
47.24    240
47.26    399
47.28    458
47.3     530
47.32    634
47.34    645
47.36    629
47.38    599
47.4     600
47.42    602
47.44    610
47.46    568
47.48    467
47.5     418
47.52    343
47.54    334
47.56    345
47.58    361
47.6     475
47.62    525
47.64    573
47.66    545
47.68    531
47.7     569
47.72    539
47.74    490
47.76    459
47.78    442
47.8     432
47.82    363
47.84    351
47.86    401
47.88    441
47.9     484
47.92    524
47.94    549
47.96    572
47.98    583
48.0     526
48.02    475
48.04    446
48.06    444
48.08    420
48.1     397
48.12    460
48.14    483
48.16    455
48.18    437
48.2     369
48.22    308
48.24    286
48.26    300
48.28    338
48.3     378
48.32    464
48.34    555
48.36    627
48.38    634
48.4     562
48.42    503
48.44    456
48.46    386
48.48    294
48.5     311
48.52    360
48.54    500
48.56    566
48.58    596
48.6     629
48.62    629
48.64    603
48.66    507
48.68    390
48.7     350
48.72    287
48.74    328
48.76    287
48.78    361
48.8     465
48.82    531
48.84    595
48.86    601
48.88    565
48.9     503
48.92    446
48.94    417
48.96    301
48.98    302
49.0     276
49.02    336
49.04    396
49.06    457
49.08    507
49.1     561
49.12    546
49.14    534
49.16    469
49.18    431
49.2     425
49.22    471
49.24    487
49.26    502
49.28    478
49.3     509
49.32    433
49.34    436
49.36    379
49.38    299
49.4     392
49.42    411
49.44    426
49.46    410
49.48    404
49.5     463
49.52    460
49.54    486
49.56    461
49.58    434
49.6     550
49.62    535
49.64    527
49.66    492
49.68    458
49.7     466
49.72    455
49.74    439
49.76    426
49.78    413
49.8     452
49.82    409
49.84    390
49.86    352
49.88    368
49.9     448
49.92    464
49.94    455
49.96    527
49.98    585
50.0     590
50.02    504
50.04    443
50.06    395
50.08    389
50.1     342
50.12    267
50.14    256
50.16    349
50.18    378
50.2     367
50.22    373
50.24    452
50.26    524
50.28    513
50.3     516
50.32    512
50.34    480
50.36    404
50.38    331
50.4     297
50.42    276
50.44    248
50.46    227
50.48    252
50.5     304
50.52    367
50.54    368
50.56    430
50.58    563
50.6     622
50.62    654
50.64    666
50.66    671
50.68    663
50.7     593
50.72    574
50.74    521
50.76    479
50.78    445
50.8     375
50.82    378
50.84    328
50.86    274
50.88    329
50.9     397
50.92    462
50.94    442
50.96    451
50.98    543
51.0     585
51.02    584
51.04    539
51.06    521
51.08    585
51.1     544
51.12    430
51.14    288
51.16    282
51.18    333
51.2     345
51.22    310
51.24    377
51.26    493
51.28    544
51.3     540
51.32    527
51.34    503
51.36    530
51.38    542
51.4     545
51.42    538
51.44    605
51.46    636
51.48    550
51.5     520
51.52    502
51.54    439
51.56    384
51.58    365
51.6     386
51.62    491
51.64    541
51.66    584
51.68    599
51.7     583
51.72    576
51.74    535
51.76    416
51.78    428
51.8     409
51.82    442
51.84    480
51.86    496
51.88    505
51.9     503
51.92    537
51.94    581
51.96    516
51.98    548
52.0     555
52.02    559
52.04    565
52.06    503
52.08    439
52.1     405
52.12    421
52.14    475
52.16    485
52.18    603
52.2     703
52.22    750
52.24    745
52.26    738
52.28    615
52.3     491
52.32    334
52.34    237
52.36    205
52.38    238
52.4     234
52.42    352
52.44    478
52.46    629
52.48    643
52.5     650
52.52    588
52.54    645
52.56    630
52.58    556
52.6     520
52.62    560
52.64    528
52.66    562
52.68    466
52.7     436
52.72    497
52.74    584
52.76    574
52.78    575
52.8     563
52.82    545
52.84    465
52.86    412
52.88    244
52.9     188
52.92    256
52.94    309
52.96    376
52.98    537
53.0     610
53.02    714
53.04    741
53.06    687
53.08    629
53.1     610
53.12    589
53.14    566
53.16    606
53.18    693
53.2     734
53.22    829
53.24    829
53.26    846
53.28    887
53.3     915
53.32    902
53.34    979
53.36    1408
53.38    2867
53.4     5489
53.42    8527
53.44    11061
53.46    12633
53.48    12874
53.5     11727
53.52    9402
53.54    6411
53.56    3548
53.58    1758
53.6     1002
53.62    823
53.64    817
53.66    798
53.68    803
53.7     790
53.72    762
53.74    778
53.76    784
53.78    687
53.8     566
53.82    510
53.84    471
53.86    424
53.88    505
53.9     550
53.92    550
53.94    593
53.96    564
53.98    536
54.0     494
54.02    485
54.04    482
54.06    503
54.08    544
54.1     567
54.12    539
54.14    540
54.16    494
54.18    470
54.2     429
54.22    372
54.24    301
54.26    300
54.28    335
54.3     358
54.32    365
54.34    449
54.36    483
54.38    491
54.4     538
54.42    483
54.44    481
54.46    567
54.48    562
54.5     505
54.52    476
54.54    509
54.56    510
54.58    511
54.6     508
54.62    441
54.64    425
54.66    417
54.68    340
54.7     312
54.72    317
54.74    383
54.76    427
54.78    441
54.8     472
54.82    475
54.84    443
54.86    453
54.88    462
54.9     498
54.92    476
54.94    494
54.96    466
54.98    493
55.0     548
55.02    501
55.04    471
55.06    460
55.08    495
55.1     543
55.12    475
55.14    475
55.16    534
55.18    594
55.2     581
55.22    522
55.24    427
55.26    343
55.28    358
55.3     327
55.32    233
55.34    211
55.36    268
55.38    296
55.4     378
55.42    474
55.44    524
55.46    604
55.48    629
55.5     626
55.52    547
55.54    454
55.56    336
55.58    292
55.6     335
55.62    397
55.64    465
55.66    503
55.68    554
55.7     665
55.72    710
55.74    685
55.76    535
55.78    458
55.8     377
55.82    317
55.84    255
55.86    194
55.88    233
55.9     338
55.92    445
55.94    514
55.96    554
55.98    565
56.0     587
56.02    658
56.04    609
56.06    523
56.08    488
56.1     426
56.12    450
56.14    517
56.16    477
56.18    403
56.2     429
56.22    480
56.24    497
56.26    459
56.28    457
56.3     449
56.32    562
56.34    597
56.36    532
56.38    509
56.4     503
56.42    592
56.44    627
56.46    585
56.48    539
56.5     505
56.52    514
56.54    482
56.56    422
56.58    336
56.6     305
56.62    350
56.64    337
56.66    389
56.68    435
56.7     541
56.72    651
56.74    731
56.76    705
56.78    622
56.8     590
56.82    540
56.84    486
56.86    438
56.88    456
56.9     504
56.92    594
56.94    631
56.96    602
56.98    589
57.0     583
57.02    567
57.04    499
57.06    430
57.08    403
57.1     446
57.12    479
57.14    501
57.16    555
57.18    581
57.2     592
57.22    630
57.24    593
57.26    574
57.28    578
57.3     605
57.32    520
57.34    580
57.36    619
57.38    611
57.4     642
57.42    671
57.44    639
57.46    609
57.48    607
57.5     513
57.52    475
57.54    506
57.56    535
57.58    530
57.6     526
57.62    531
57.64    551
57.66    594
57.68    598
57.7     541
57.72    574
57.74    636
57.76    709
57.78    682
57.8     622
57.82    638
57.84    703
57.86    802
57.88    849
57.9     831
57.92    937
57.94    1048
57.96    1142
57.98    1191
58.0     1223
58.02    1247
58.04    1278
58.06    1323
58.08    1369
58.1     1392
58.12    1588
58.14    1874
58.16    2581
58.18    4485
58.2     8544
58.22    14642
58.24    21204
58.26    26302
58.28    28828
58.3     28387
58.32    25059
58.34    19461
58.36    12793
58.38    6979
58.4     3277
58.42    1865
58.44    1524
58.46    1372
58.48    1252
58.5     1114
58.52    1036
58.54    992
58.56    979
58.58    979
58.6     840
58.62    870
58.64    926
58.66    989
58.68    996
58.7     907
58.72    892
58.74    794
58.76    717
58.78    618
58.8     453
58.82    385
58.84    381
58.86    399
58.88    383
58.9     366
58.92    353
58.94    357
58.96    452
58.98    520
59.0     531
59.02    565
59.04    658
59.06    674
59.08    680
59.1     621
59.12    450
59.14    390
59.16    345
59.18    337
59.2     350
59.22    336
59.24    409
59.26    451
59.28    556
59.3     577
59.32    574
59.34    587
59.36    523
59.38    536
59.4     520
59.42    491
59.44    509
59.46    495
59.48    513
59.5     536
59.52    571
59.54    544
59.56    496
59.58    497
59.6     503
59.62    552
59.64    574
59.66    543
59.68    520
59.7     515
59.72    437
59.74    394
59.76    375
59.78    356
59.8     382
59.82    477
59.84    533
59.86    581
59.88    664
59.9     670
59.92    601
59.94    561
59.96    504
59.98    439
60.0     418
60.02    386
60.04    309
60.06    323
60.08    412
60.1     372
60.12    351
60.14    359
60.16    396
60.18    421
60.2     465
60.22    483
60.24    478
60.26    498
60.28    545
60.3     467
60.32    448
60.34    465
60.36    449
60.38    397
60.4     389
60.42    435
60.44    427
60.46    437
60.48    451
60.5     439
60.52    465
60.54    546
60.56    514
60.58    522
60.6     576
60.62    657
60.64    647
60.66    675
60.68    643
60.7     628
60.72    560
60.74    512
60.76    384
60.78    284
60.8     267
60.82    316
60.84    346
60.86    427
60.88    497
60.9     570
60.92    576
60.94    614
60.96    531
60.98    426
61.0     417
61.02    449
61.04    383
61.06    351
61.08    381
61.1     415
61.12    454
61.14    530
61.16    497
61.18    497
61.2     537
61.22    577
61.24    537
61.26    506
61.28    509
61.3     439
61.32    422
61.34    423
61.36    389
61.38    436
61.4     439
61.42    511
61.44    587
61.46    687
61.48    760
61.5     718
61.52    739
61.54    747
61.56    692
61.58    691
61.6     541
61.62    440
61.64    428
61.66    430
61.68    402
61.7     398
61.72    474
61.74    584
61.76    647
61.78    721
61.8     734
61.82    772
61.84    873
61.86    860
61.88    863
61.9     908
61.92    948
61.94    994
61.96    988
61.98    988
62.0     1332
62.02    2278
62.04    4147
62.06    7224
62.08    11458
62.1     16175
62.12    20548
62.14    23552
62.16    24408
62.18    23016
62.2     19894
62.22    15664
62.24    11234
62.26    7549
62.28    4964
62.3     3378
62.32    2639
62.34    2170
62.36    1796
62.38    1571
62.4     1498
62.42    1414
62.44    1304
62.46    1225
62.48    1157
62.5     1034
62.52    972
62.54    821
62.56    739
62.58    729
62.6     763
62.62    806
62.64    896
62.66    955
62.68    1064
62.7     1076
62.72    1111
62.74    1094
62.76    1075
62.78    936
62.8     847
62.82    812
62.84    767
62.86    684
62.88    700
62.9     612
62.92    628
62.94    600
62.96    611
62.98    540
63.0     584
63.02    588
63.04    526
63.06    523
63.08    524
63.1     513
63.12    554
63.14    532
63.16    571
63.18    538
63.2     553
63.22    513
63.24    497
63.26    490
63.28    415
63.3     463
63.32    474
63.34    539
63.36    592
63.38    575
63.4     604
63.42    623
63.44    661
63.46    607
63.48    553
63.5     594
63.52    575
63.54    584
63.56    518
63.58    458
63.6     455
63.62    444
63.64    426
63.66    444
63.68    484
63.7     569
63.72    587
63.74    594
63.76    545
63.78    515
63.8     512
63.82    487
63.84    470
63.86    517
63.88    513
63.9     600
63.92    681
63.94    743
63.96    724
63.98    696
64.0     693
64.02    662
64.04    552
64.06    464
64.08    367
64.1     331
64.12    313
64.14    323
64.16    325
64.18    336
64.2     385
64.22    468
64.24    527
64.26    621
64.28    606
64.3     576
64.32    558
64.34    520
64.36    539
64.38    534
64.4     521
64.42    556
64.44    580
64.46    624
64.48    617
64.5     645
64.52    587
64.54    538
64.56    606
64.58    571
64.6     552
64.62    602
64.64    639
64.66    685
64.68    847
64.7     1184
64.72    1694
64.74    2628
64.76    3895
64.78    5185
64.8     6336
64.82    7027
64.84    7087
64.86    6532
64.88    5541
64.9     4310
64.92    3082
64.94    2140
64.96    1531
64.98    1115
65.0     916
65.02    793
65.04    688
65.06    650
65.08    629
65.1     671
65.12    663
65.14    640
65.16    660
65.18    613
65.2     631
65.22    629
65.24    631
65.26    592
65.28    538
65.3     586
65.32    518
65.34    428
65.36    395
65.38    325
65.4     280
65.42    274
65.44    349
65.46    349
65.48    328
65.5     471
65.52    539
65.54    568
65.56    612
65.58    655
65.6     674
65.62    606
65.64    590
65.66    512
65.68    391
65.7     383
65.72    405
65.74    443
65.76    506
65.78    612
65.8     686
65.82    669
65.84    670
65.86    652
65.88    572
65.9     501
65.92    455
65.94    452
65.96    422
65.98    383
66.0     364
66.02    408
66.04    442
66.06    489
66.08    504
66.1     497
66.12    487
66.14    524
66.16    524
66.18    463
66.2     433
66.22    486
66.24    472
66.26    433
66.28    388
66.3     345
66.32    283
66.34    310
66.36    318
66.38    299
66.4     305
66.42    384
66.44    450
66.46    489
66.48    512
66.5     563
66.52    539
66.54    509
66.56    425
66.58    348
66.6     294
66.62    315
66.64    367
66.66    426
66.68    470
66.7     481
66.72    496
66.74    494
66.76    514
66.78    512
66.8     529
66.82    515
66.84    472
66.86    466
66.88    418
66.9     406
66.92    398
66.94    449
66.96    491
66.98    504
67.0     486
67.02    511
67.04    520
67.06    584
67.08    545
67.1     538
67.12    458
67.14    433
67.16    405
67.18    378
67.2     368
67.22    413
67.24    399
67.26    422
67.28    404
67.3     402
67.32    358
67.34    316
67.36    337
67.38    375
67.4     428
67.42    465
67.44    460
67.46    442
67.48    474
67.5     450
67.52    455
67.54    441
67.56    441
67.58    474
67.6     475
67.62    505
67.64    449
67.66    387
67.68    398
67.7     322
67.72    337
67.74    334
67.76    321
67.78    371
67.8     429
67.82    435
67.84    504
67.86    538
67.88    534
67.9     515
67.92    535
67.94    530
67.96    485
67.98    481
68.0     474
68.02    426
68.04    432
68.06    395
68.08    409
68.1     448
68.12    495
68.14    506
68.16    484
68.18    494
68.2     557
68.22    569
68.24    565
68.26    557
68.28    543
68.3     487
68.32    461
68.34    422
68.36    424
68.38    408
68.4     398
68.42    412
68.44    412
68.46    394
68.48    363
68.5     370
68.52    390
68.54    427
68.56    502
68.58    481
68.6     490
68.62    561
68.64    581
68.66    621
68.68    684
68.7     733
68.72    743
68.74    718
68.76    702
68.78    685
68.8     735
68.82    808
68.84    921
68.86    1220
68.88    1857
68.9     2904
68.92    4363
68.94    5938
68.96    7159
68.98    7813
69.0     7720
69.02    6939
69.04    5621
69.06    4048
69.08    2681
69.1     1754
69.12    1285
69.14    1071
69.16    887
69.18    772
69.2     636
69.22    485
69.24    399
69.26    284
69.28    267
69.3     279
69.32    350
69.34    458
69.36    537
69.38    688
69.4     777
69.42    791
69.44    799
69.46    715
69.48    584
69.5     509
69.52    441
69.54    410
69.56    350
69.58    345
69.6     363
69.62    378
69.64    376
69.66    364
69.68    403
69.7     454
69.72    475
69.74    440
69.76    401
69.78    396
69.8     454
69.82    455
69.84    429
69.86    454
69.88    495
69.9     509
69.92    472
69.94    452
69.96    477
69.98    502
70.0     545
70.02    522
70.04    535
70.06    577
70.08    561
70.1     532
70.12    499
70.14    515
70.16    498
70.18    392
70.2     333
70.22    308
70.24    375
70.26    459
70.28    539
70.3     586
70.32    653
70.34    673
70.36    651
70.38    680
70.4     742
70.42    804
70.44    906
70.46    1119
70.48    1406
70.5     1799
70.52    2239
70.54    2676
70.56    3101
70.58    3434
70.6     3502
70.62    3282
70.64    2924
70.66    2462
70.68    1930
70.7     1448
70.72    1080
70.74    829
70.76    696
70.78    617
70.8     575
70.82    512
70.84    500
70.86    425
70.88    368
70.9     369
70.92    416
70.94    440
70.96    462
70.98    467
71.0     513
71.02    538
71.04    546
71.06    559
71.08    542
71.1     535
71.12    525
71.14    528
71.16    464
71.18    448
71.2     470
71.22    444
71.24    425
71.26    411
71.28    395
71.3     398
71.32    422
71.34    444
71.36    460
71.38    532
71.4     522
71.42    483
71.44    511
71.46    513
71.48    522
71.5     515
71.52    517
71.54    491
71.56    516
71.58    473
71.6     441
71.62    430
71.64    406
71.66    366
71.68    329
71.7     341
71.72    382
71.74    413
71.76    472
71.78    502
71.8     557
71.82    550
71.84    459
71.86    506
71.88    481
71.9     455
71.92    500
71.94    481
71.96    482
71.98    478
72.0     496
72.02    474
72.04    457
72.06    474
72.08    470
72.1     528
72.12    624
72.14    627
72.16    626
72.18    632
72.2     673
72.22    627
72.24    553
72.26    510
72.28    531
72.3     580
72.32    631
72.34    676
72.36    760
72.38    884
72.4     1127
72.42    1605
72.44    2466
72.46    3827
72.48    5488
72.5     7097
72.52    8290
72.54    8821
72.56    8540
72.58    7512
72.6     6032
72.62    4434
72.64    3071
72.66    2178
72.68    1668
72.7     1383
72.72    1247
72.74    1114
72.76    1018
72.78    940
72.8     915
72.82    843
72.84    828
72.86    770
72.88    668
72.9     608
72.92    557
72.94    487
72.96    534
72.98    535
73.0     531
73.02    505
73.04    530
73.06    510
73.08    518
73.1     558
73.12    617
73.14    618
73.16    651
73.18    576
73.2     531
73.22    547
73.24    509
73.26    494
73.28    453
73.3     479
73.32    567
73.34    635
73.36    738
73.38    885
73.4     1115
73.42    1353
73.44    1523
73.46    1651
73.48    1660
73.5     1634
73.52    1498
73.54    1239
73.56    999
73.58    829
73.6     678
73.62    626
73.64    564
73.66    553
73.68    541
73.7     535
73.72    496
73.74    464
73.76    513
73.78    494
73.8     521
73.82    581
73.84    556
73.86    521
73.88    508
73.9     489
73.92    497
73.94    545
73.96    558
73.98    507
74.0     609
74.02    652
74.04    622
74.06    601
74.08    616
74.1     595
74.12    638
74.14    741
74.16    870
74.18    1216
74.2     1716
74.22    2189
74.24    2712
74.26    3211
74.28    3498
74.3     3528
74.32    3379
74.34    3022
74.36    2495
74.38    2058
74.4     1594
74.42    1211
74.44    1025
74.46    924
74.48    779
74.5     673
74.52    607
74.54    552
74.56    485
74.58    526
74.6     559
74.62    633
74.64    760
74.66    790
74.68    786
74.7     802
74.72    906
74.74    1158
74.76    1587
74.78    2182
74.8     2908
74.82    3538
74.84    4017
74.86    4101
74.88    3885
74.9     3397
74.92    2759
74.94    2020
74.96    1386
74.98    965
75.0     781
75.02    687
75.04    766
75.06    790
75.08    815
75.1     873
75.12    839
75.14    724
75.16    657
75.18    678
75.2     673
75.22    634
75.24    647
75.26    584
75.28    485
75.3     452
75.32    394
75.34    356
75.36    440
75.38    546
75.4     531
75.42    485
75.44    494
75.46    455
75.48    472
75.5     477
75.52    475
75.54    505
75.56    525
75.58    521
75.6     426
75.62    409
75.64    439
75.66    462
75.68    545
75.7     518
75.72    514
75.74    517
75.76    439
75.78    439
75.8     395
75.82    450
75.84    416
75.86    407
75.88    410
75.9     387
75.92    391
75.94    426
75.96    399
75.98    426
76.0     480
76.02    532
76.04    484
76.06    535
76.08    537
76.1     527
76.12    528
76.14    519
76.16    462
76.18    496
76.2     532
76.22    495
76.24    441
76.26    407
76.28    350
76.3     325
76.32    333
76.34    309
76.36    310
76.38    313
76.4     282
76.42    271
76.44    334
76.46    384
76.48    410
76.5     444
76.52    469
76.54    499
76.56    502
76.58    431
76.6     387
76.62    437
76.64    527
76.66    503
76.68    439
76.7     415
76.72    402
76.74    421
76.76    401
76.78    344
76.8     406
76.82    458
76.84    484
76.86    485
76.88    502
76.9     539
76.92    527
76.94    497
76.96    473
76.98    425
77.0     463
77.02    378
77.04    390
77.06    430
77.08    467
77.1     535
77.12    533
77.14    516
77.16    559
77.18    577
77.2     528
77.22    540
77.24    610
77.26    621
77.28    612
77.3     528
77.32    480
77.34    502
77.36    581
77.38    640
77.4     757
77.42    1066
77.44    1577
77.46    2336
77.48    3408
77.5     4767
77.52    6395
77.54    7879
77.56    8905
77.58    9242
77.6     8937
77.62    8007
77.64    6701
77.66    5200
77.68    3791
77.7     2698
77.72    1959
77.74    1462
77.76    1134
77.78    928
77.8     850
77.82    805
77.84    794
77.86    795
77.88    742
77.9     704
77.92    729
77.94    747
77.96    735
77.98    712
78.0     657
78.02    601
78.04    585
78.06    535
78.08    417
78.1     328
78.12    366
78.14    373
78.16    349
78.18    353
78.2     435
78.22    486
78.24    520
78.26    541
78.28    521
78.3     494
78.32    513
78.34    441
78.36    388
78.38    447
78.4     520
78.42    437
78.44    399
78.46    418
78.48    372
78.5     358
78.52    348
78.54    356
78.56    350
78.58    428
78.6     449
78.62    354
78.64    359
78.66    449
78.68    437
78.7     485
78.72    486
78.74    479
78.76    397
78.78    334
78.8     312
78.82    244
78.84    238
78.86    322
78.88    358
78.9     373
78.92    378
78.94    369
78.96    371
78.98    420
79.0     490
79.02    488
79.04    495
79.06    529
79.08    568
79.1     504
79.12    490
79.14    547
79.16    573
79.18    630
79.2     644
79.22    585
79.24    578
79.26    564
79.28    522
79.3     448
79.32    458
79.34    493
79.36    445
79.38    422
79.4     425
79.42    386
79.44    397
79.46    455
79.48    398
79.5     426
79.52    448
79.54    457
79.56    405
79.58    389
79.6     464
79.62    460
79.64    417
79.66    426
79.68    350
79.7     366
79.72    366
79.74    385
79.76    369
79.78    395
79.8     452
79.82    447
79.84    371
79.86    385
79.88    422
79.9     486
79.92    513
79.94    526
79.96    626
79.98    698
80.0     776
80.02    851
80.04    847
80.06    909
80.08    934
80.1     791
80.12    620
80.14    519
80.16    519
80.18    501
80.2     511
80.22    550
80.24    572
80.26    582
80.28    587
80.3     474
80.32    395
80.34    388
80.36    381
80.38    322
80.4     324
80.42    274
80.44    265
80.46    229
80.48    282
80.5     327
80.52    318
80.54    389
80.56    423
80.58    372
80.6     389
80.62    367
80.64    389
80.66    362
80.68    383
80.7     397
80.72    344
80.74    359
80.76    358
80.78    383
80.8     453
80.82    485
80.84    538
80.86    539
80.88    496
80.9     478
80.92    418
80.94    385
80.96    385
80.98    363
81.0     333
81.02    265
81.04    249
81.06    223
81.08    186
81.1     229
81.12    287
81.14    353
81.16    406
81.18    386
81.2     346
81.22    236
81.24    237
81.26    248
81.28    309
81.3     405
81.32    454
81.34    487
81.36    503
81.38    474
81.4     445
81.42    330
81.44    336
81.46    429
81.48    510
81.5     522
81.52    492
81.54    391
81.56    362
81.58    358
81.6     351
81.62    306
81.64    341
81.66    466
81.68    513
81.7     473
81.72    395
81.74    284
81.76    287
81.78    334
81.8     353
81.82    402
81.84    449
81.86    516
81.88    542
81.9     460
81.92    382
81.94    395
81.96    412
81.98    416
82.0     419
82.02    374
82.04    384
82.06    342
82.08    307
82.1     268
82.12    214
82.14    248
82.16    305
82.18    293
82.2     261
82.22    235
82.24    286
82.26    263
82.28    283
82.3     319
82.32    301
82.34    362
82.36    438
82.38    492
82.4     472
82.42    439
82.44    457
82.46    387
82.48    367
82.5     335
82.52    307
82.54    327
82.56    370
82.58    446
82.6     359
82.62    290
82.64    299
82.66    263
82.68    297
82.7     270
82.72    320
82.74    311
82.76    332
82.78    398
82.8     347
82.82    323
82.84    340
82.86    381
82.88    361
82.9     326
82.92    302
82.94    242
82.96    223
82.98    255
83.0     244
83.02    339
83.04    380
83.06    428
83.08    402
83.1     460
83.12    458
83.14    449
83.16    435
83.18    398
83.2     337
83.22    364
83.24    325
83.26    303
83.28    255
83.3     233
83.32    176
83.34    174
83.36    205
83.38    197
83.4     156
83.42    210
83.44    337
83.46    418
83.48    486
83.5     470
83.52    389
83.54    418
83.56    438
83.58    404
83.6     377
83.62    365
83.64    360
83.66    431
83.68    431
83.7     336
83.72    222
83.74    220
83.76    258
83.78    298
83.8     284
83.82    252
83.84    246
83.86    284
83.88    230
83.9     215
83.92    209
83.94    245
83.96    328
83.98    433
84.0     452
84.02    498
84.04    542
84.06    525
84.08    497
84.1     473
84.12    456
84.14    382
84.16    314
84.18    344
84.2     349
84.22    318
84.24    286
84.26    324
84.28    322
84.3     297
84.32    308
84.34    267
84.36    334
84.38    400
84.4     438
84.42    484
84.44    493
84.46    489
84.48    484
84.5     420
84.52    359
84.54    339
84.56    369
84.58    356
84.6     351
84.62    368
84.64    382
84.66    349
84.68    414
84.7     501
84.72    592
84.74    692
84.76    800
84.78    846
84.8     774
84.82    629
84.84    533
84.86    435
84.88    360
84.9     331
84.92    348
84.94    350
84.96    407
84.98    430
85.0     441
85.02    378
85.04    333
85.06    336
85.08    324
85.1     309
85.12    275
85.14    274
85.16    257
85.18    271
85.2     280
85.22    208
85.24    160
85.26    165
85.28    246
85.3     299
85.32    344
85.34    433
85.36    474
85.38    488
85.4     424
85.42    405
85.44    351
85.46    347
85.48    377
85.5     378
85.52    393
85.54    370
85.56    326
85.58    239
85.6     146
85.62    148
85.64    60
85.66    72
85.68    74
85.7     129
85.72    165
85.74    215
85.76    275
85.78    306
85.8     295
85.82    362
85.84    365
85.86    421
85.88    370
85.9     410
85.92    465
85.94    465
85.96    420
85.98    415
86.0     368
86.02    352
86.04    331
86.06    305
86.08    226
86.1     267
86.12    284
86.14    263
86.16    293
86.18    313
86.2     303
86.22    294
86.24    319
86.26    347
86.28    412
86.3     550
86.32    686
86.34    901
86.36    1152
86.38    1409
86.4     1640
86.42    1741
86.44    1870
86.46    1883
86.48    1777
86.5     1608
86.52    1376
86.54    1137
86.56    917
86.58    764
86.6     580
86.62    479
86.64    481
86.66    468
86.68    477
86.7     506
86.72    514
86.74    493
86.76    441
86.78    394
86.8     343
86.82    325
86.84    303
86.86    313
86.88    353
86.9     407
86.92    379
86.94    391
86.96    401
86.98    372
87.0     390
87.02    395
87.04    417
87.06    404
87.08    396
87.1     393
87.12    376
87.14    377
87.16    380
87.18    363
87.2     334
87.22    265
87.24    233
87.26    186
87.28    211
87.3     228
87.32    289
87.34    303
87.36    358
87.38    358
87.4     352
87.42    380
87.44    368
87.46    352
87.48    416
87.5     427
87.52    417
87.54    392
87.56    390
87.58    341
87.6     374
87.62    395
87.64    377
87.66    434
87.68    441
87.7     446
87.72    418
87.74    446
87.76    367
87.78    305
87.8     288
87.82    306
87.84    296
87.86    327
87.88    242
87.9     229
87.92    237
87.94    285
87.96    290
87.98    292
88.0     377
88.02    409
88.04    456
88.06    444
88.08    408
88.1     395
88.12    393
88.14    367
88.16    423
88.18    402
88.2     457
88.22    431
88.24    426
88.26    404
88.28    340
88.3     292
88.32    326
88.34    357
88.36    383
88.38    393
88.4     425
88.42    456
88.44    461
88.46    471
88.48    355
88.5     309
88.52    314
88.54    266
88.56    253
88.58    259
88.6     225
88.62    233
88.64    275
88.66    254
88.68    177
88.7     119
88.72    93
88.74    121
88.76    222
88.78    265
88.8     285
88.82    388
88.84    403
88.86    404
88.88    375
88.9     337
88.92    329
88.94    334
88.96    385
88.98    494
89.0     515
89.02    533
89.04    498
89.06    469
89.08    409
89.1     305
89.12    282
89.14    254
89.16    256
89.18    304
89.2     291
89.22    286
89.24    330
89.26    264
89.28    260
89.3     238
89.32    225
89.34    230
89.36    305
89.38    367
89.4     352
89.42    315
89.44    344
89.46    308
89.48    301
89.5     304
89.52    268
89.54    330
89.56    404
89.58    421
89.6     446
89.62    426
89.64    369
89.66    285
89.68    231
89.7     233
89.72    170
89.74    172
89.76    235
89.78    300
89.8     368
89.82    357
89.84    375
89.86    419
89.88    362
89.9     342
89.92    317
89.94    363
89.96    335
89.98    339
90.0     363
