?
5.0      820
5.02     820
5.04     1065
5.06     993
5.08     996
5.1      1007
5.12     989
5.14     944
5.16     940
5.18     926
5.2      930
5.22     927
5.24     897
5.26     916
5.28     970
5.3      975
5.32     956
5.34     936
5.36     967
5.38     949
5.4      950
5.42     932
5.44     913
5.46     920
5.48     936
5.5      916
5.52     915
5.54     960
5.56     992
5.58     945
5.6      975
5.62     941
5.64     963
5.66     949
5.68     974
5.7      961
5.72     983
5.74     977
5.76     939
5.78     916
5.8      909
5.82     870
5.84     877
5.86     851
5.88     855
5.9      830
5.92     864
5.94     835
5.96     859
5.98     931
6.0      964
6.02     972
6.04     937
6.06     896
6.08     883
6.1      874
6.12     856
6.14     875
6.16     902
6.18     944
6.2      911
6.22     876
6.24     879
6.26     855
6.28     891
6.3      887
6.32     892
6.34     950
6.36     968
6.38     938
6.4      911
6.42     903
6.44     944
6.46     947
6.48     959
6.5      950
6.52     932
6.54     977
6.56     968
6.58     931
6.6      923
6.62     843
6.64     867
6.66     870
6.68     825
6.7      870
6.72     846
6.74     908
6.76     891
6.78     942
6.8      956
6.82     940
6.84     984
6.86     974
6.88     983
6.9      976
6.92     921
6.94     935
6.96     908
6.98     934
7.0      953
7.02     919
7.04     941
7.06     954
7.08     936
7.1      906
7.12     873
7.14     887
7.16     869
7.18     842
7.2      856
7.22     821
7.24     859
7.26     897
7.28     867
7.3      919
7.32     881
7.34     940
7.36     945
7.38     919
7.4      906
7.42     901
7.44     916
7.46     939
7.48     899
7.5      946
7.52     935
7.54     953
7.56     896
7.58     939
7.6      913
7.62     967
7.64     945
7.66     942
7.68     927
7.7      964
7.72     933
7.74     927
7.76     896
7.78     961
7.8      940
7.82     975
7.84     931
7.86     948
7.88     913
7.9      927
7.92     934
7.94     906
7.96     911
7.98     943
8.0      970
8.02     931
8.04     944
8.06     927
8.08     933
8.1      941
8.12     960
8.14     910
8.16     937
8.18     976
8.2      988
8.22     949
8.24     933
8.26     951
8.28     971
8.3      992
8.32     974
8.34     959
8.36     908
8.38     906
8.4      858
8.42     823
8.44     818
8.46     858
8.48     877
8.5      956
8.52     919
8.54     929
8.56     885
8.58     866
8.6      803
8.62     870
8.64     833
8.66     875
8.68     854
8.7      877
8.72     817
8.74     814
8.76     793
8.78     833
8.8      829
8.82     876
8.84     828
8.86     878
8.88     830
8.9      861
8.92     840
8.94     847
8.96     889
8.98     948
9.0      903
9.02     884
9.04     867
9.06     814
9.08     760
9.1      741
9.12     707
9.14     707
9.16     668
9.18     669
9.2      648
9.22     669
9.24     650
9.26     659
9.28     717
9.3      740
9.32     766
9.34     800
9.36     759
9.38     780
9.4      706
9.42     658
9.44     633
9.46     673
9.48     698
9.5      729
9.52     732
9.54     747
9.56     752
9.58     775
9.6      725
9.62     712
9.64     721
9.66     721
9.68     694
9.7      744
9.72     689
9.74     692
9.76     731
9.78     738
9.8      760
9.82     737
9.84     747
9.86     740
9.88     697
9.9      740
9.92     644
9.94     677
9.96     636
9.98     610
10.0     625
10.02    579
10.04    598
10.06    594
10.08    600
10.1     633
10.12    590
10.14    667
10.16    639
10.18    643
10.2     634
10.22    602
10.24    618
10.26    580
10.28    557
10.3     538
10.32    488
10.34    543
10.36    540
10.38    548
10.4     553
10.42    625
10.44    602
10.46    606
10.48    576
10.5     557
10.52    523
10.54    600
10.56    608
10.58    644
10.6     689
10.62    718
10.64    682
10.66    664
10.68    641
10.7     663
10.72    626
10.74    596
10.76    588
10.78    547
10.8     516
10.82    486
10.84    551
10.86    514
10.88    652
10.9     688
10.92    654
10.94    634
10.96    602
10.98    558
11.0     491
11.02    501
11.04    529
11.06    519
11.08    553
11.1     546
11.12    577
11.14    559
11.16    539
11.18    566
11.2     536
11.22    575
11.24    633
11.26    671
11.28    634
11.3     664
11.32    660
11.34    609
11.36    560
11.38    548
11.4     490
11.42    571
11.44    638
11.46    632
11.48    623
11.5     661
11.52    636
11.54    648
11.56    668
11.58    625
11.6     604
11.62    689
11.64    730
11.66    736
11.68    741
11.7     712
11.72    694
11.74    693
11.76    673
11.78    581
11.8     556
11.82    595
11.84    673
11.86    642
11.88    643
11.9     673
11.92    708
11.94    685
11.96    656
11.98    667
12.0     614
12.02    658
12.04    690
12.06    660
12.08    725
12.1     778
12.12    777
12.14    740
12.16    706
12.18    701
12.2     645
12.22    634
12.24    653
12.26    646
12.28    702
12.3     700
12.32    771
12.34    758
12.36    711
12.38    724
12.4     738
12.42    697
12.44    688
12.46    672
12.48    667
12.5     644
12.52    717
12.54    660
12.56    599
12.58    657
12.6     670
12.62    648
12.64    636
12.66    641
12.68    610
12.7     648
12.72    662
12.74    630
12.76    607
12.78    647
12.8     651
12.82    654
12.84    645
12.86    668
12.88    655
12.9     669
12.92    685
12.94    658
12.96    687
12.98    730
13.0     756
13.02    739
13.04    728
13.06    777
13.08    707
13.1     657
13.12    630
13.14    608
13.16    621
13.18    615
13.2     612
13.22    549
13.24    555
13.26    614
13.28    620
13.3     641
13.32    665
13.34    732
13.36    694
13.38    722
13.4     747
13.42    662
13.44    686
13.46    711
13.48    748
13.5     716
13.52    719
13.54    724
13.56    696
13.58    734
13.6     687
13.62    616
13.64    660
13.66    664
13.68    705
13.7     682
13.72    693
13.74    746
13.76    753
13.78    713
13.8     645
13.82    648
13.84    729
13.86    735
13.88    742
13.9     680
13.92    691
13.94    734
13.96    656
13.98    595
14.0     547
14.02    564
14.04    613
14.06    544
14.08    548
14.1     587
14.12    629
14.14    637
14.16    634
14.18    679
14.2     734
14.22    778
14.24    741
14.26    672
14.28    755
14.3     770
14.32    726
14.34    730
14.36    708
14.38    720
14.4     736
14.42    702
14.44    691
14.46    682
14.48    652
14.5     616
14.52    645
14.54    677
14.56    654
14.58    613
14.6     582
14.62    671
14.64    737
14.66    755
14.68    685
14.7     694
14.72    748
14.74    754
14.76    787
14.78    729
14.8     700
14.82    760
14.84    745
14.86    829
14.88    823
14.9     796
14.92    904
14.94    986
14.96    1017
14.98    965
15.0     940
15.02    859
15.04    772
15.06    781
15.08    693
15.1     550
15.12    558
15.14    657
15.16    630
15.18    584
15.2     636
15.22    629
15.24    659
15.26    686
15.28    607
15.3     533
15.32    554
15.34    684
15.36    647
15.38    623
15.4     670
15.42    706
15.44    776
15.46    792
15.48    720
15.5     701
15.52    741
15.54    744
15.56    684
15.58    751
15.6     762
15.62    744
15.64    768
15.66    801
15.68    771
15.7     745
15.72    747
15.74    733
15.76    717
15.78    774
15.8     768
15.82    732
15.84    777
15.86    841
15.88    891
15.9     879
15.92    900
15.94    935
15.96    934
15.98    927
16.0     964
16.02    1058
16.04    1164
16.06    1240
16.08    1314
16.1     1390
16.12    1457
16.14    1541
16.16    1627
16.18    1697
16.2     1831
16.22    2045
16.24    2314
16.26    2631
16.28    2994
16.3     3555
16.32    4086
16.34    4830
16.36    5699
16.38    6823
16.4     8393
16.42    10297
16.44    12722
16.46    16336
16.48    21544
16.5     29523
16.52    40569
16.54    52417
16.56    60844
16.58    63145
16.6     59154
16.62    49686
16.64    36612
16.66    22543
16.68    10085
16.7     2255
16.72    1906
16.74    493
16.76    487
16.78    1538
16.8     2017
16.82    1594
16.84    1163
16.86    1175
16.88    1295
16.9     1303
16.92    1198
16.94    1125
16.96    1064
16.98    1050
17.0     1087
17.02    1051
17.04    964
17.06    984
17.08    1040
17.1     1047
17.12    959
17.14    846
17.16    878
17.18    941
17.2     953
17.22    854
17.24    843
17.26    889
17.28    857
17.3     808
17.32    764
17.34    764
17.36    849
17.38    847
17.4     795
17.42    802
17.44    878
17.46    921
17.48    882
17.5     827
17.52    799
17.54    788
17.56    753
17.58    733
17.6     744
17.62    756
17.64    758
17.66    778
17.68    752
17.7     636
17.72    616
17.74    635
17.76    596
17.78    611
17.8     628
17.82    624
17.84    684
17.86    731
17.88    681
17.9     610
17.92    662
17.94    744
17.96    709
17.98    691
18.0     639
18.02    647
18.04    733
18.06    702
18.08    610
18.1     554
18.12    584
18.14    670
18.16    630
18.18    594
18.2     542
18.22    635
18.24    665
18.26    647
18.28    580
18.3     525
18.32    502
18.34    492
18.36    504
18.38    516
18.4     502
18.42    569
18.44    589
18.46    592
18.48    505
18.5     471
18.52    478
18.54    489
18.56    546
18.58    566
18.6     581
18.62    640
18.64    650
18.66    609
18.68    592
18.7     602
18.72    672
18.74    683
18.76    646
18.78    626
18.8     600
18.82    621
18.84    576
18.86    561
18.88    517
18.9     513
18.92    557
18.94    530
18.96    498
18.98    530
19.0     602
19.02    654
19.04    655
19.06    650
19.08    569
19.1     566
19.12    510
19.14    494
19.16    469
19.18    523
19.2     578
19.22    594
19.24    618
19.26    651
19.28    607
19.3     614
19.32    589
19.34    601
19.36    541
19.38    550
19.4     587
19.42    619
19.44    627
19.46    600
19.48    567
19.5     600
19.52    627
19.54    576
19.56    534
19.58    505
19.6     493
19.62    515
19.64    547
19.66    525
19.68    522
19.7     578
19.72    606
19.74    587
19.76    595
19.78    531
19.8     478
19.82    467
19.84    527
19.86    518
19.88    446
19.9     442
19.92    464
19.94    485
19.96    520
19.98    470
20.0     457
20.02    426
20.04    503
20.06    495
20.08    490
20.1     512
20.12    581
20.14    607
20.16    558
20.18    484
20.2     458
20.22    469
20.24    486
20.26    469
20.28    425
20.3     477
20.32    545
20.34    596
20.36    554
20.38    514
20.4     542
20.42    583
20.44    505
20.46    492
20.48    476
20.5     569
20.52    575
20.54    579
20.56    543
20.58    506
20.6     506
20.62    496
20.64    474
20.66    515
20.68    524
20.7     543
20.72    543
20.74    578
20.76    609
20.78    585
20.8     520
20.82    518
20.84    503
20.86    506
20.88    435
20.9     397
20.92    472
20.94    580
20.96    634
20.98    606
21.0     517
21.02    504
21.04    498
21.06    490
21.08    469
21.1     449
21.12    522
21.14    565
21.16    598
21.18    523
21.2     426
21.22    393
21.24    387
21.26    418
21.28    433
21.3     453
21.32    495
21.34    555
21.36    564
21.38    484
21.4     406
21.42    379
21.44    408
21.46    407
21.48    410
21.5     426
21.52    479
21.54    526
21.56    525
21.58    526
21.6     486
21.62    496
21.64    444
21.66    418
21.68    435
21.7     375
21.72    376
21.74    341
21.76    407
21.78    436
21.8     409
21.82    419
21.84    401
21.86    467
21.88    476
21.9     493
21.92    442
21.94    426
21.96    472
21.98    497
22.0     483
22.02    541
22.04    562
22.06    570
22.08    502
22.1     426
22.12    349
22.14    349
22.16    382
22.18    449
22.2     433
22.22    419
22.24    383
22.26    383
22.28    356
22.3     303
22.32    327
22.34    372
22.36    418
22.38    433
22.4     442
22.42    391
22.44    392
22.46    363
22.48    377
22.5     372
22.52    375
22.54    380
22.56    359
22.58    356
22.6     409
22.62    418
22.64    405
22.66    342
22.68    379
22.7     466
22.72    502
22.74    442
22.76    402
22.78    309
22.8     325
22.82    303
22.84    303
22.86    298
22.88    352
22.9     457
22.92    502
22.94    479
22.96    451
22.98    373
23.0     379
23.02    367
23.04    408
23.06    422
23.08    431
23.1     435
23.12    466
23.14    501
23.16    467
23.18    406
23.2     308
23.22    311
23.24    337
23.26    356
23.28    315
23.3     273
23.32    392
23.34    490
23.36    498
23.38    436
23.4     369
23.42    415
23.44    421
23.46    427
23.48    389
23.5     350
23.52    429
23.54    439
23.56    415
23.58    345
23.6     343
23.62    371
23.64    375
23.66    356
23.68    343
23.7     344
23.72    379
23.74    372
23.76    359
23.78    344
23.8     387
23.82    442
23.84    420
23.86    387
23.88    399
23.9     392
23.92    336
23.94    255
23.96    272
23.98    328
24.0     392
24.02    410
24.04    372
24.06    392
24.08    381
24.1     355
24.12    291
24.14    222
24.16    221
24.18    242
24.2     301
24.22    322
24.24    328
24.26    314
24.28    295
24.3     354
24.32    358
24.34    260
24.36    132
24.38    136
24.4     221
24.42    337
24.44    366
24.46    384
24.48    380
24.5     384
24.52    372
24.54    243
24.56    201
24.58    250
24.6     352
24.62    378
24.64    338
24.66    346
24.68    333
24.7     293
24.72    338
24.74    295
24.76    330
24.78    326
24.8     291
24.82    199
24.84    225
24.86    290
24.88    346
24.9     328
24.92    329
24.94    265
24.96    254
24.98    270
25.0     237
25.02    246
25.04    350
25.06    432
25.08    462
25.1     387
25.12    333
25.14    234
25.16    277
25.18    254
25.2     246
25.22    272
25.24    343
25.26    449
25.28    489
25.3     503
25.32    462
25.34    418
25.36    399
25.38    316
25.4     287
25.42    210
25.44    167
25.46    211
25.48    234
25.5     257
25.52    275
25.54    302
25.56    341
25.58    354
25.6     351
25.62    263
25.64    237
25.66    256
25.68    216
25.7     227
25.72    235
25.74    285
25.76    365
25.78    428
25.8     476
25.82    427
25.84    368
25.86    313
25.88    248
25.9     267
25.92    291
25.94    367
25.96    432
25.98    445
26.0     413
26.02    340
26.04    272
26.06    202
26.08    207
26.1     214
26.12    261
26.14    283
26.16    318
26.18    314
26.2     311
26.22    349
26.24    361
26.26    380
26.28    388
26.3     369
26.32    332
26.34    227
26.36    194
26.38    183
26.4     229
26.42    325
26.44    399
26.46    488
26.48    495
26.5     451
26.52    418
26.54    318
26.56    280
26.58    249
26.6     275
26.62    291
26.64    329
26.66    315
26.68    277
26.7     215
26.72    274
26.74    277
26.76    339
26.78    384
26.8     345
26.82    321
26.84    291
26.86    199
26.88    178
26.9     124
26.92    215
26.94    267
26.96    367
26.98    410
27.0     336
27.02    337
27.04    325
27.06    295
27.08    272
27.1     279
27.12    306
27.14    294
27.16    316
27.18    338
27.2     298
27.22    309
27.24    311
27.26    288
27.28    289
27.3     319
27.32    283
27.34    262
27.36    249
27.38    268
27.4     288
27.42    268
27.44    276
27.46    328
27.48    374
27.5     378
27.52    365
27.54    330
27.56    343
27.58    339
27.6     348
27.62    318
27.64    357
27.66    398
27.68    335
27.7     283
27.72    262
27.74    279
27.76    340
27.78    324
27.8     334
27.82    380
27.84    422
27.86    429
27.88    387
27.9     333
27.92    313
27.94    310
27.96    295
27.98    285
28.0     233
28.02    234
28.04    255
28.06    218
28.08    257
28.1     242
28.12    255
28.14    360
28.16    381
28.18    400
28.2     317
28.22    258
28.24    254
28.26    207
28.28    269
28.3     248
28.32    278
28.34    341
28.36    358
28.38    371
28.4     298
28.42    266
28.44    273
28.46    283
28.48    357
28.5     358
28.52    411
28.54    408
28.56    455
28.58    429
28.6     363
28.62    362
28.64    304
28.66    302
28.68    286
28.7     264
28.72    249
28.74    252
28.76    215
28.78    199
28.8     170
28.82    232
28.84    262
28.86    321
28.88    361
28.9     388
28.92    311
28.94    277
28.96    223
28.98    193
29.0     155
29.02    230
29.04    240
29.06    337
29.08    422
29.1     348
29.12    340
29.14    320
29.16    332
29.18    339
29.2     339
29.22    319
29.24    269
29.26    303
29.28    264
29.3     197
29.32    273
29.34    279
29.36    330
29.38    421
29.4     424
29.42    413
29.44    334
29.46    301
29.48    255
29.5     256
29.52    290
29.54    292
29.56    306
29.58    364
29.6     353
29.62    348
29.64    313
29.66    281
29.68    294
29.7     257
29.72    225
29.74    173
29.76    190
29.78    264
29.8     289
29.82    318
29.84    323
29.86    259
29.88    243
29.9     211
29.92    276
29.94    308
29.96    393
29.98    411
30.0     341
30.02    320
30.04    256
30.06    246
30.08    215
30.1     249
30.12    332
30.14    312
30.16    352
30.18    302
30.2     261
30.22    258
30.24    222
30.26    254
30.28    193
30.3     219
30.32    292
30.34    313
30.36    381
30.38    415
30.4     374
30.42    330
30.44    272
30.46    241
30.48    191
30.5     209
30.52    226
30.54    231
30.56    326
30.58    357
30.6     359
30.62    406
30.64    354
30.66    358
30.68    293
30.7     226
30.72    223
30.74    236
30.76    288
30.78    319
30.8     346
30.82    379
30.84    404
30.86    402
30.88    264
30.9     240
30.92    209
30.94    175
30.96    228
30.98    282
31.0     317
31.02    385
31.04    428
31.06    366
31.08    240
31.1     207
31.12    129
31.14    177
31.16    260
31.18    327
31.2     356
31.22    326
31.24    256
31.26    184
31.28    160
31.3     147
31.32    142
31.34    278
31.36    405
31.38    481
31.4     458
31.42    380
31.44    301
31.46    292
31.48    298
31.5     270
31.52    243
31.54    301
31.56    324
31.58    307
31.6     287
31.62    259
31.64    295
31.66    361
31.68    344
31.7     383
31.72    306
31.74    269
31.76    228
31.78    219
31.8     240
31.82    299
31.84    345
31.86    387
31.88    365
31.9     361
31.92    321
31.94    286
31.96    227
31.98    225
32.0     223
32.02    254
32.04    294
32.06    326
32.08    383
32.1     442
32.12    469
32.14    478
32.16    466
32.18    405
32.2     402
32.22    424
32.24    463
32.26    474
32.28    479
32.3     483
32.32    442
32.34    403
32.36    343
32.38    315
32.4     381
32.42    406
32.44    495
32.46    478
32.48    413
32.5     417
32.52    359
32.54    301
32.56    302
32.58    354
32.6     394
32.62    448
32.64    492
32.66    415
32.68    338
32.7     338
32.72    305
32.74    359
32.76    440
32.78    577
32.8     670
32.82    714
32.84    682
32.86    598
32.88    463
32.9     367
32.92    258
32.94    287
32.96    342
32.98    398
33.0     429
33.02    439
33.04    470
33.06    493
33.08    467
33.1     458
33.12    482
33.14    500
33.16    535
33.18    507
33.2     484
33.22    462
33.24    439
33.26    427
33.28    417
33.3     506
33.32    574
33.34    677
33.36    873
33.38    1042
33.4     1281
33.42    1668
33.44    2222
33.46    3318
33.48    5450
33.5     8702
33.52    12308
33.54    15339
33.56    16845
33.58    16578
33.6     14688
33.62    11452
33.64    7536
33.66    3944
33.68    1498
33.7     408
33.72    306
33.74    476
33.76    631
33.78    733
33.8     795
33.82    722
33.84    664
33.86    636
33.88    551
33.9     485
33.92    489
33.94    468
33.96    479
33.98    489
34.0     472
34.02    423
34.04    480
34.06    560
34.08    591
34.1     603
34.12    590
34.14    561
34.16    530
34.18    520
34.2     530
34.22    504
34.24    588
34.26    598
34.28    611
34.3     585
34.32    572
34.34    544
34.36    527
34.38    547
34.4     537
34.42    479
34.44    465
34.46    391
34.48    383
34.5     373
34.52    399
34.54    464
34.56    532
34.58    588
34.6     610
34.62    621
34.64    555
34.66    469
34.68    452
34.7     403
34.72    312
34.74    351
34.76    352
34.78    396
34.8     469
34.82    514
34.84    526
34.86    513
34.88    553
34.9     550
34.92    552
34.94    635
34.96    747
34.98    939
35.0     1260
35.02    1988
35.04    3510
35.06    5981
35.08    9078
35.1     11959
35.12    13713
35.14    14109
35.16    13102
35.18    10827
35.2     7808
35.22    4760
35.24    2433
35.26    1203
35.28    839
35.3     796
35.32    763
35.34    780
35.36    778
35.38    784
35.4     726
35.42    683
35.44    647
35.46    577
35.48    549
35.5     571
35.52    636
35.54    633
35.56    643
35.58    629
35.6     507
35.62    483
35.64    445
35.66    419
35.68    408
35.7     506
35.72    559
35.74    522
35.76    572
35.78    506
35.8     382
35.82    431
35.84    479
35.86    559
35.88    656
35.9     724
35.92    713
35.94    632
35.96    572
35.98    461
36.0     425
36.02    485
36.04    541
36.06    632
36.08    744
36.1     776
36.12    753
36.14    668
36.16    568
36.18    571
36.2     631
36.22    691
36.24    774
36.26    894
36.28    1021
36.3     1263
36.32    1512
36.34    1821
36.36    2516
36.38    4036
36.4     7292
36.42    12840
36.44    19852
36.46    26344
36.48    30419
36.5     31489
36.52    29330
36.54    24245
36.56    17425
36.58    10412
36.6     5003
36.62    2199
36.64    1377
36.66    1190
36.68    1012
36.7     995
36.72    946
36.74    823
36.76    817
36.78    801
36.8     711
36.82    680
36.84    625
36.86    492
36.88    472
36.9     531
36.92    567
36.94    630
36.96    730
36.98    750
37.0     770
37.02    745
37.04    746
37.06    811
37.08    974
37.1     1156
37.12    1331
37.14    1394
37.16    1389
37.18    1296
37.2     1155
37.22    919
37.24    752
37.26    663
37.28    665
37.3     743
37.32    878
37.34    1066
37.36    1163
37.38    1203
37.4     1189
37.42    990
37.44    702
37.46    455
37.48    301
37.5     157
37.52    153
37.54    382
37.56    491
37.58    624
37.6     706
37.62    672
37.64    542
37.66    461
37.68    363
37.7     294
37.72    280
37.74    428
37.76    465
37.78    534
37.8     585
37.82    603
37.84    500
37.86    453
37.88    388
37.9     384
37.92    307
37.94    365
37.96    339
37.98    384
38.0     429
38.02    427
38.04    393
38.06    435
38.08    409
38.1     368
38.12    319
38.14    364
38.16    306
38.18    364
38.2     424
38.22    460
38.24    497
38.26    567
38.28    489
38.3     422
38.32    352
38.34    273
38.36    178
38.38    238
38.4     343
38.42    413
38.44    466
38.46    567
38.48    498
38.5     444
38.52    406
38.54    344
38.56    292
38.58    377
38.6     440
38.62    472
38.64    473
38.66    523
38.68    354
38.7     290
38.72    254
38.74    220
38.76    167
38.78    332
38.8     392
38.82    519
38.84    573
38.86    618
38.88    452
38.9     389
38.92    259
38.94    184
38.96    91
38.98    224
39.0     224
39.02    362
39.04    443
39.06    507
39.08    376
39.1     417
39.12    407
39.14    401
39.16    351
39.18    418
39.2     360
39.22    374
39.24    381
39.26    373
39.28    315
39.3     372
39.32    396
39.34    435
39.36    438
39.38    493
39.4     475
39.42    456
39.44    463
39.46    487
39.48    436
39.5     381
39.52    381
39.54    378
39.56    366
39.58    403
39.6     434
39.62    416
39.64    390
39.66    367
39.68    341
39.7     330
39.72    361
39.74    382
39.76    457
39.78    463
39.8     484
39.82    461
39.84    413
39.86    304
39.88    300
39.9     272
39.92    381
39.94    444
39.96    537
39.98    563
40.0     610
40.02    627
40.04    618
40.06    499
40.08    502
40.1     510
40.12    530
40.14    513
40.16    601
40.18    704
40.2     720
40.22    763
40.24    754
40.26    661
40.28    649
40.3     622
40.32    538
40.34    492
40.36    650
40.38    731
40.4     734
40.42    778
40.44    721
40.46    685
40.48    619
40.5     538
40.52    508
40.54    486
40.56    628
40.58    694
40.6     762
40.62    803
40.64    802
40.66    815
40.68    793
40.7     732
40.72    724
40.74    693
40.76    740
40.78    740
40.8     724
40.82    717
40.84    728
40.86    717
40.88    791
40.9     812
40.92    836
40.94    870
40.96    936
40.98    899
41.0     919
41.02    938
41.04    931
41.06    855
41.08    887
41.1     903
41.12    902
41.14    950
41.16    1097
41.18    1213
41.2     1335
41.22    1507
41.24    1734
41.26    1906
41.28    2136
41.3     2455
41.32    2827
41.34    3273
41.36    3784
41.38    4389
41.4     5148
41.42    6635
41.44    10037
41.46    19012
41.48    38439
41.5     66054
41.52    93346
41.54    112190
41.56    118688
41.58    112351
41.6     94768
41.62    69008
41.64    40525
41.66    17560
41.68    6070
41.7     3306
41.72    3314
41.74    2965
41.76    2209
41.78    1684
41.8     1663
41.82    1712
41.84    1711
41.86    1788
41.88    1803
41.9     1710
41.92    1496
41.94    1270
41.96    1092
41.98    913
42.0     818
42.02    817
42.04    859
42.06    907
42.08    932
42.1     1025
42.12    1058
42.14    1031
42.16    1066
42.18    984
42.2     898
42.22    851
42.24    763
42.26    698
42.28    707
42.3     717
42.32    769
42.34    809
42.36    849
42.38    844
42.4     847
42.42    812
42.44    775
42.46    701
42.48    647
42.5     541
42.52    564
42.54    603
42.56    610
42.58    681
42.6     742
42.62    763
42.64    742
42.66    705
42.68    669
42.7     624
42.72    635
42.74    641
42.76    610
42.78    646
42.8     678
42.82    668
42.84    632
42.86    606
42.88    583
42.9     544
42.92    562
42.94    577
42.96    609
42.98    695
43.0     876
43.02    1024
43.04    1162
43.06    1279
43.08    1435
43.1     1582
43.12    1747
43.14    1808
43.16    1871
43.18    1866
43.2     1828
43.22    1659
43.24    1446
43.26    1211
43.28    950
43.3     753
43.32    601
43.34    508
43.36    536
43.38    522
43.4     553
43.42    544
43.44    601
43.46    625
43.48    579
43.5     574
43.52    500
43.54    479
43.56    429
43.58    398
43.6     393
43.62    399
43.64    508
43.66    619
43.68    628
43.7     607
43.72    569
43.74    529
43.76    516
43.78    489
43.8     457
43.82    594
43.84    667
43.86    721
43.88    685
43.9     577
43.92    465
43.94    367
43.96    378
43.98    307
44.0     345
44.02    473
44.04    506
44.06    544
44.08    527
44.1     435
44.12    398
44.14    420
44.16    426
44.18    431
44.2     475
44.22    498
44.24    511
44.26    548
44.28    545
44.3     518
44.32    590
44.34    666
44.36    626
44.38    577
44.4     553
44.42    571
44.44    523
44.46    475
44.48    441
44.5     473
44.52    546
44.54    581
44.56    576
44.58    573
44.6     593
44.62    576
44.64    524
44.66    468
44.68    442
44.7     442
44.72    422
44.74    411
44.76    438
44.78    501
44.8     527
44.82    524
44.84    533
44.86    580
44.88    558
44.9     567
44.92    588
44.94    702
44.96    950
44.98    1433
45.0     1940
45.02    2417
45.04    2637
45.06    2685
45.08    2490
45.1     2073
45.12    1563
45.14    1069
45.16    744
45.18    557
45.2     530
45.22    538
45.24    490
45.26    496
45.28    506
45.3     486
45.32    508
45.34    485
45.36    493
45.38    462
45.4     511
45.42    430
45.44    443
45.46    466
45.48    447
45.5     495
45.52    467
45.54    479
45.56    477
45.58    431
45.6     360
45.62    292
45.64    342
45.66    330
45.68    308
45.7     389
45.72    419
45.74    498
45.76    491
45.78    474
45.8     469
45.82    486
45.84    468
45.86    420
45.88    443
45.9     525
45.92    521
45.94    565
45.96    578
45.98    649
46.0     613
46.02    544
46.04    479
46.06    385
46.08    328
46.1     262
46.12    228
46.14    260
46.16    308
46.18    370
46.2     398
46.22    425
46.24    465
46.26    440
46.28    373
46.3     382
46.32    396
46.34    389
46.36    422
46.38    451
46.4     494
46.42    483
46.44    526
46.46    533
46.48    487
46.5     503
46.52    465
46.54    480
46.56    459
46.58    417
46.6     388
46.62    349
46.64    361
46.66    325
46.68    285
46.7     336
46.72    323
46.74    362
46.76    397
46.78    452
46.8     512
46.82    585
46.84    673
46.86    628
46.88    507
46.9     518
46.92    420
46.94    395
46.96    333
46.98    286
47.0     277
47.02    330
47.04    381
47.06    360
47.08    325
47.1     456
47.12    474
47.14    474
47.16    433
47.18    440
47.2     483
47.22    515
47.24    515
47.26    542
47.28    501
47.3     485
47.32    454
47.34    424
47.36    470
47.38    480
47.4     572
47.42    620
47.44    582
47.46    569
47.48    470
47.5     397
47.52    378
47.54    369
47.56    405
47.58    392
47.6     457
47.62    459
47.64    490
47.66    446
47.68    471
47.7     465
47.72    516
47.74    539
47.76    544
47.78    579
47.8     572
47.82    540
47.84    546
47.86    493
47.88    513
47.9     439
47.92    468
47.94    392
47.96    398
47.98    481
48.0     526
48.02    540
48.04    552
48.06    623
48.08    570
48.1     479
48.12    462
48.14    369
48.16    382
48.18    465
48.2     508
48.22    461
48.24    436
48.26    438
48.28    430
48.3     327
48.32    312
48.34    297
48.36    391
48.38    479
48.4     490
48.42    511
48.44    507
48.46    518
48.48    575
48.5     463
48.52    460
48.54    440
48.56    423
48.58    374
48.6     294
48.62    285
48.64    247
48.66    283
48.68    353
48.7     400
48.72    517
48.74    540
48.76    521
48.78    470
48.8     378
48.82    325
48.84    246
48.86    220
48.88    262
48.9     348
48.92    435
48.94    481
48.96    535
48.98    506
49.0     480
49.02    448
49.04    369
49.06    344
49.08    329
49.1     330
49.12    327
49.14    345
49.16    438
49.18    443
49.2     462
49.22    446
49.24    449
49.26    452
49.28    397
49.3     354
49.32    338
49.34    326
49.36    395
49.38    367
49.4     358
49.42    375
49.44    416
49.46    433
49.48    436
49.5     459
49.52    532
49.54    581
49.56    599
49.58    524
49.6     483
49.62    433
49.64    349
49.66    261
49.68    213
49.7     230
49.72    298
49.74    361
49.76    392
49.78    415
49.8     465
49.82    475
49.84    443
49.86    408
49.88    454
49.9     418
49.92    430
49.94    427
49.96    469
49.98    512
50.0     488
50.02    463
50.04    383
50.06    346
50.08    320
50.1     265
50.12    320
50.14    401
50.16    456
50.18    522
50.2     526
50.22    516
50.24    514
50.26    472
50.28    400
50.3     389
50.32    393
50.34    450
50.36    426
50.38    448
50.4     423
50.42    424
50.44    449
50.46    374
50.48    320
50.5     316
50.52    434
50.54    491
50.56    500
50.58    530
50.6     535
50.62    511
50.64    476
50.66    395
50.68    349
50.7     369
50.72    415
50.74    357
50.76    338
50.78    389
50.8     361
50.82    364
50.84    426
50.86    448
50.88    478
50.9     508
50.92    471
50.94    476
50.96    440
50.98    457
51.0     393
51.02    400
51.04    383
51.06    373
51.08    334
51.1     298
51.12    308
51.14    330
51.16    310
51.18    347
51.2     366
51.22    427
51.24    482
51.26    502
51.28    466
51.3     468
51.32    489
51.34    465
51.36    397
51.38    398
51.4     483
51.42    552
51.44    590
51.46    547
51.48    538
51.5     546
51.52    515
51.54    395
51.56    318
51.58    319
51.6     390
51.62    339
51.64    288
51.66    282
51.68    389
51.7     424
51.72    412
51.74    371
51.76    440
51.78    467
51.8     497
51.82    448
51.84    469
51.86    516
51.88    571
51.9     493
51.92    455
51.94    444
51.96    416
51.98    348
52.0     336
52.02    371
52.04    437
52.06    506
52.08    547
52.1     556
52.12    574
52.14    580
52.16    517
52.18    476
52.2     492
52.22    491
52.24    509
52.26    543
52.28    532
52.3     604
52.32    598
52.34    579
52.36    559
52.38    544
52.4     514
52.42    502
52.44    494
52.46    445
52.48    469
52.5     502
52.52    437
52.54    398
52.56    413
52.58    402
52.6     419
52.62    413
52.64    453
52.66    485
52.68    522
52.7     502
52.72    497
52.74    498
52.76    498
52.78    497
52.8     450
52.82    393
52.84    470
52.86    413
52.88    413
52.9     503
52.92    552
52.94    554
52.96    547
52.98    564
53.0     566
53.02    580
53.04    540
53.06    464
53.08    475
53.1     535
53.12    524
53.14    462
53.16    458
53.18    495
53.2     605
53.22    623
53.24    592
53.26    651
53.28    759
53.3     888
53.32    1000
53.34    1148
53.36    1682
53.38    3022
53.4     5466
53.42    8264
53.44    10658
53.46    12111
53.48    12406
53.5     11350
53.52    9225
53.54    6374
53.56    3660
53.58    1810
53.6     1128
53.62    935
53.64    875
53.66    870
53.68    866
53.7     830
53.72    807
53.74    703
53.76    633
53.78    604
53.8     607
53.82    570
53.84    514
53.86    517
53.88    477
53.9     523
53.92    493
53.94    472
53.96    368
53.98    361
54.0     370
54.02    451
54.04    457
54.06    545
54.08    533
54.1     563
54.12    549
54.14    553
54.16    427
54.18    380
54.2     400
54.22    434
54.24    457
54.26    475
54.28    472
54.3     517
54.32    578
54.34    532
54.36    497
54.38    505
54.4     553
54.42    524
54.44    527
54.46    421
54.48    421
54.5     397
54.52    362
54.54    277
54.56    259
54.58    281
54.6     362
54.62    410
54.64    496
54.66    539
54.68    634
54.7     692
54.72    634
54.74    544
54.76    478
54.78    391
54.8     322
54.82    263
54.84    282
54.86    343
54.88    441
54.9     466
54.92    467
54.94    520
54.96    556
54.98    501
55.0     425
55.02    345
55.04    303
55.06    338
55.08    333
55.1     286
55.12    333
55.14    354
55.16    403
55.18    442
55.2     377
55.22    354
55.24    380
55.26    459
55.28    470
55.3     458
55.32    431
55.34    404
55.36    429
55.38    398
55.4     296
55.42    279
55.44    324
55.46    386
55.48    451
55.5     475
55.52    499
55.54    592
55.56    653
55.58    681
55.6     672
55.62    621
55.64    610
55.66    520
55.68    497
55.7     416
55.72    368
55.74    351
55.76    364
55.78    385
55.8     433
55.82    446
55.84    443
55.86    405
55.88    414
55.9     381
55.92    368
55.94    355
55.96    345
55.98    361
56.0     415
56.02    430
56.04    420
56.06    410
56.08    420
56.1     454
56.12    496
56.14    526
56.16    518
56.18    573
56.2     587
56.22    599
56.24    538
56.26    480
56.28    408
56.3     357
56.32    337
56.34    294
56.36    272
56.38    329
56.4     412
56.42    510
56.44    552
56.46    629
56.48    633
56.5     626
56.52    598
56.54    438
56.56    340
56.58    250
56.6     267
56.62    240
56.64    236
56.66    310
56.68    351
56.7     399
56.72    441
56.74    388
56.76    447
56.78    456
56.8     578
56.82    560
56.84    561
56.86    575
56.88    579
56.9     558
56.92    536
56.94    494
56.96    465
56.98    462
57.0     506
57.02    464
57.04    430
57.06    444
57.08    489
57.1     514
57.12    573
57.14    609
57.16    618
57.18    641
57.2     619
57.22    569
57.24    529
57.26    529
57.28    508
57.3     504
57.32    559
57.34    603
57.36    640
57.38    646
57.4     615
57.42    578
57.44    573
57.46    582
57.48    546
57.5     520
57.52    515
57.54    444
57.56    409
57.58    378
57.6     329
57.62    338
57.64    448
57.66    550
57.68    607
57.7     672
57.72    657
57.74    692
57.76    741
57.78    751
57.8     717
57.82    697
57.84    727
57.86    719
57.88    762
57.9     763
57.92    781
57.94    897
57.96    976
57.98    1042
58.0     1031
58.02    1022
58.04    1048
58.06    1109
58.08    1223
58.1     1326
58.12    1486
58.14    1808
58.16    2560
58.18    4449
58.2     8389
58.22    14291
58.24    20797
58.26    26108
58.28    28856
58.3     28627
58.32    25413
58.34    19935
58.36    13375
58.38    7505
58.4     3666
58.42    1953
58.44    1535
58.46    1464
58.48    1382
58.5     1319
58.52    1178
58.54    1105
58.56    1061
58.58    1011
58.6     850
58.62    739
58.64    675
58.66    685
58.68    700
58.7     667
58.72    523
58.74    484
58.76    498
58.78    526
58.8     507
58.82    487
58.84    497
58.86    580
58.88    643
58.9     705
58.92    640
58.94    597
58.96    603
58.98    591
59.0     502
59.02    427
59.04    339
59.06    251
59.08    253
59.1     328
59.12    374
59.14    386
59.16    481
59.18    572
59.2     644
59.22    734
59.24    699
59.26    631
59.28    570
59.3     532
59.32    475
59.34    362
59.36    358
59.38    360
59.4     364
59.42    416
59.44    445
59.46    508
59.48    530
59.5     548
59.52    478
59.54    455
59.56    467
59.58    436
59.6     381
59.62    328
59.64    311
59.66    372
59.68    379
59.7     344
59.72    308
59.74    373
59.76    448
59.78    442
59.8     444
59.82    431
59.84    465
59.86    551
59.88    583
59.9     579
59.92    604
59.94    654
59.96    673
59.98    586
60.0     521
60.02    456
60.04    363
60.06    287
60.08    260
60.1     262
60.12    266
60.14    330
60.16    382
60.18    433
60.2     482
60.22    533
60.24    459
60.26    394
60.28    391
60.3     359
60.32    288
60.34    283
60.36    287
60.38    297
60.4     371
60.42    477
60.44    495
60.46    497
60.48    560
60.5     583
60.52    569
60.54    530
60.56    470
60.58    354
60.6     331
60.62    356
60.64    350
60.66    321
60.68    350
60.7     367
60.72    415
60.74    464
60.76    488
60.78    470
60.8     495
60.82    541
60.84    566
60.86    543
60.88    450
60.9     396
60.92    370
60.94    337
60.96    340
60.98    343
61.0     342
61.02    368
61.04    435
61.06    424
61.08    442
61.1     517
61.12    526
61.14    552
61.16    583
61.18    582
61.2     555
61.22    521
61.24    525
61.26    418
61.28    433
61.3     426
61.32    410
61.34    453
61.36    499
61.38    520
61.4     498
61.42    548
61.44    579
61.46    573
61.48    577
61.5     543
61.52    493
61.54    498
61.56    418
61.58    328
61.6     309
61.62    321
61.64    355
61.66    400
61.68    489
61.7     551
61.72    638
61.74    749
61.76    763
61.78    795
61.8     872
61.82    919
61.84    973
61.86    890
61.88    904
61.9     868
61.92    872
61.94    834
61.96    780
61.98    744
62.0     1012
62.02    1886
62.04    3785
62.06    6673
62.08    10569
62.1     14859
62.12    18907
62.14    21910
62.16    23238
62.18    22564
62.2     20095
62.22    16544
62.24    12743
62.26    9080
62.28    6161
62.3     4031
62.32    2812
62.34    2123
62.36    1766
62.38    1612
62.4     1436
62.42    1284
62.44    1175
62.46    1070
62.48    971
62.5     882
62.52    958
62.54    942
62.56    899
62.58    886
62.6     886
62.62    871
62.64    930
62.66    994
62.68    1035
62.7     1040
62.72    1089
62.74    1064
62.76    974
62.78    844
62.8     848
62.82    727
62.84    703
62.86    636
62.88    615
62.9     538
62.92    573
62.94    628
62.96    627
62.98    629
63.0     697
63.02    659
63.04    645
63.06    536
63.08    525
63.1     467
63.12    499
63.14    475
63.16    421
63.18    382
63.2     405
63.22    421
63.24    471
63.26    466
63.28    571
63.3     556
63.32    589
63.34    559
63.36    540
63.38    460
63.4     437
63.42    445
63.44    460
63.46    392
63.48    362
63.5     174
63.52    126
63.54    145
63.56    236
63.58    264
63.6     395
63.62    559
63.64    641
63.66    719
63.68    768
63.7     688
63.72    623
63.74    550
63.76    474
63.78    381
63.8     284
63.82    176
63.84    121
63.86    124
63.88    204
63.9     295
63.92    322
63.94    375
63.96    448
63.98    532
64.0     497
64.02    445
64.04    451
64.06    376
64.08    307
64.1     328
64.12    278
64.14    288
64.16    321
64.18    393
64.2     434
64.22    470
64.24    529
64.26    507
64.28    436
64.3     460
64.32    412
64.34    431
64.36    404
64.38    434
64.4     484
64.42    537
64.44    610
64.46    627
64.48    598
64.5     613
64.52    612
64.54    634
64.56    578
64.58    541
64.6     524
64.62    509
64.64    529
64.66    530
64.68    701
64.7     991
64.72    1576
64.74    2523
64.76    3569
64.78    4739
64.8     5777
64.82    6515
64.84    6738
64.86    6366
64.88    5619
64.9     4542
64.92    3420
64.94    2500
64.96    1710
64.98    1219
65.0     922
65.02    788
65.04    729
65.06    656
65.08    641
65.1     663
65.12    641
65.14    633
65.16    610
65.18    540
65.2     498
65.22    421
65.24    421
65.26    411
65.28    408
65.3     446
65.32    459
65.34    462
65.36    454
65.38    434
65.4     430
65.42    455
65.44    500
65.46    515
65.48    451
65.5     444
65.52    461
65.54    459
65.56    440
65.58    445
65.6     454
65.62    475
65.64    458
65.66    398
65.68    333
65.7     377
65.72    391
65.74    392
65.76    412
65.78    419
65.8     450
65.82    422
65.84    422
65.86    405
65.88    330
65.9     319
65.92    288
65.94    298
65.96    356
65.98    368
66.0     422
66.02    393
66.04    446
66.06    466
66.08    460
66.1     464
66.12    455
66.14    442
66.16    456
66.18    394
66.2     397
66.22    362
66.24    397
66.26    410
66.28    449
66.3     420
66.32    412
66.34    375
66.36    319
66.38    269
66.4     318
66.42    337
66.44    359
66.46    373
66.48    402
66.5     354
66.52    400
66.54    409
66.56    444
66.58    446
66.6     459
66.62    470
66.64    413
66.66    400
66.68    410
66.7     350
66.72    396
66.74    380
66.76    405
66.78    405
66.8     374
66.82    358
66.84    297
66.86    312
66.88    350
66.9     316
66.92    316
66.94    336
66.96    382
66.98    427
67.0     428
67.02    383
67.04    324
67.06    273
67.08    233
67.1     190
67.12    201
67.14    250
67.16    327
67.18    373
67.2     422
67.22    463
67.24    485
67.26    511
67.28    528
67.3     567
67.32    572
67.34    541
67.36    496
67.38    433
67.4     397
67.42    359
67.44    277
67.46    214
67.48    209
67.5     220
67.52    165
67.54    204
67.56    230
67.58    284
67.6     300
67.62    267
67.64    285
67.66    277
67.68    347
67.7     358
67.72    379
67.74    451
67.76    440
67.78    422
67.8     395
67.82    328
67.84    336
67.86    363
67.88    426
67.9     469
67.92    511
67.94    513
67.96    526
67.98    542
68.0     548
68.02    534
68.04    501
68.06    505
68.08    413
68.1     347
68.12    202
68.14    147
68.16    78
68.18    126
68.2     172
68.22    273
68.24    320
68.26    372
68.28    453
68.3     532
68.32    530
68.34    574
68.36    518
68.38    534
68.4     499
68.42    502
68.44    455
68.46    417
68.48    383
68.5     391
68.52    388
68.54    399
68.56    368
68.58    434
68.6     497
68.62    523
68.64    536
68.66    556
68.68    553
68.7     497
68.72    483
68.74    475
68.76    496
68.78    498
68.8     494
68.82    532
68.84    694
68.86    1119
68.88    1837
68.9     2979
68.92    4466
68.94    5913
68.96    7040
68.98    7584
69.0     7478
69.02    6686
69.04    5358
69.06    3880
69.08    2536
69.1     1633
69.12    1090
69.14    860
69.16    782
69.18    784
69.2     732
69.22    734
69.24    616
69.26    566
69.28    547
69.3     519
69.32    471
69.34    390
69.36    323
69.38    257
69.4     251
69.42    311
69.44    298
69.46    384
69.48    435
69.5     469
69.52    486
69.54    492
69.56    488
69.58    462
69.6     493
69.62    446
69.64    420
69.66    314
69.68    271
69.7     272
69.72    280
69.74    297
69.76    300
69.78    312
69.8     327
69.82    390
69.84    397
69.86    395
69.88    430
69.9     451
69.92    461
69.94    432
69.96    416
69.98    388
70.0     398
70.02    454
70.04    421
70.06    397
70.08    370
70.1     381
70.12    320
70.14    302
70.16    331
70.18    413
70.2     485
70.22    515
70.24    545
70.26    581
70.28    661
70.3     646
70.32    590
70.34    594
70.36    581
70.38    532
70.4     527
70.42    632
70.44    819
70.46    1143
70.48    1544
70.5     1950
70.52    2350
70.54    2748
70.56    3042
70.58    3230
70.6     3300
70.62    3107
70.64    2747
70.66    2343
70.68    1908
70.7     1498
70.72    1098
70.74    816
70.76    637
70.78    578
70.8     466
70.82    414
70.84    393
70.86    434
70.88    444
70.9     445
70.92    407
70.94    409
70.96    376
70.98    376
71.0     431
71.02    493
71.04    478
71.06    474
71.08    429
71.1     367
71.12    363
71.14    322
71.16    313
71.18    345
71.2     415
71.22    387
71.24    335
71.26    360
71.28    392
71.3     428
71.32    480
71.34    515
71.36    591
71.38    538
71.4     483
71.42    451
71.44    387
71.46    386
71.48    407
71.5     403
71.52    444
71.54    435
71.56    405
71.58    348
71.6     315
71.62    351
71.64    320
71.66    322
71.68    340
71.7     302
71.72    312
71.74    236
71.76    186
71.78    219
71.8     228
71.82    248
71.84    300
71.86    377
71.88    432
71.9     458
71.92    494
71.94    497
71.96    512
71.98    566
72.0     563
72.02    572
72.04    650
72.06    675
72.08    697
72.1     687
72.12    653
72.14    658
72.16    622
72.18    596
72.2     547
72.22    519
72.24    526
72.26    496
72.28    485
72.3     479
72.32    517
72.34    581
72.36    628
72.38    673
72.4     933
72.42    1482
72.44    2345
72.46    3618
72.48    5186
72.5     6760
72.52    8041
72.54    8668
72.56    8545
72.58    7699
72.6     6463
72.62    4934
72.64    3448
72.66    2378
72.68    1683
72.7     1278
72.72    1076
72.74    969
72.76    916
72.78    862
72.8     804
72.82    683
72.84    616
72.86    590
72.88    535
72.9     511
72.92    499
72.94    527
72.96    508
72.98    423
73.0     463
73.02    452
73.04    484
73.06    513
73.08    563
73.1     567
73.12    559
73.14    519
73.16    470
73.18    422
73.2     460
73.22    416
73.24    414
73.26    446
73.28    477
73.3     475
73.32    492
73.34    542
73.36    703
73.38    871
73.4     1060
73.42    1201
73.44    1283
73.46    1369
73.48    1359
73.5     1327
73.52    1232
73.54    1123
73.56    1018
73.58    882
73.6     753
73.62    638
73.64    518
73.66    454
73.68    401
73.7     461
73.72    486
73.74    480
73.76    451
73.78    405
73.8     422
73.82    426
73.84    446
73.86    446
73.88    496
73.9     575
73.92    519
73.94    467
73.96    434
73.98    401
74.0     464
74.02    503
74.04    520
74.06    438
74.08    459
74.1     425
74.12    410
74.14    527
74.16    737
74.18    1087
74.2     1576
74.22    2044
74.24    2430
74.26    2808
74.28    3121
74.3     3225
74.32    3156
74.34    2946
74.36    2589
74.38    2221
74.4     1798
74.42    1408
74.44    1095
74.46    927
74.48    729
74.5     605
74.52    493
74.54    542
74.56    537
74.58    550
74.6     563
74.62    604
74.64    645
74.66    686
74.68    630
74.7     710
74.72    917
74.74    1322
74.76    1783
74.78    2396
74.8     3115
74.82    3741
74.84    4168
74.86    4284
74.88    4021
74.9     3554
74.92    2883
74.94    2157
74.96    1545
74.98    1131
75.0     898
75.02    682
75.04    623
75.06    618
75.08    601
75.1     555
75.12    530
75.14    574
75.16    658
75.18    728
75.2     715
75.22    640
75.24    711
75.26    691
75.28    611
75.3     501
75.32    505
75.34    468
75.36    422
75.38    387
75.4     338
75.42    373
75.44    441
75.46    397
75.48    371
75.5     374
75.52    397
75.54    370
75.56    377
75.58    397
75.6     425
75.62    457
75.64    412
75.66    379
75.68    407
75.7     407
75.72    411
75.74    429
75.76    462
75.78    423
75.8     370
75.82    319
75.84    289
75.86    306
75.88    324
75.9     277
75.92    264
75.94    222
75.96    216
75.98    193
76.0     231
76.02    318
76.04    431
76.06    518
76.08    533
76.1     485
76.12    471
76.14    399
76.16    420
76.18    429
76.2     442
76.22    448
76.24    464
76.26    431
76.28    350
76.3     303
76.32    262
76.34    261
76.36    319
76.38    298
76.4     297
76.42    307
76.44    296
76.46    344
76.48    316
76.5     337
76.52    333
76.54    370
76.56    375
76.58    350
76.6     330
76.62    330
76.64    327
76.66    327
76.68    276
76.7     329
76.72    366
76.74    381
76.76    460
76.78    472
76.8     443
76.82    476
76.84    456
76.86    378
76.88    367
76.9     374
76.92    341
76.94    278
76.96    314
76.98    288
77.0     321
77.02    382
77.04    381
77.06    376
77.08    416
77.1     419
77.12    444
77.14    441
77.16    477
77.18    493
77.2     523
77.22    510
77.24    478
77.26    457
77.28    516
77.3     510
77.32    500
77.34    512
77.36    568
77.38    567
77.4     662
77.42    887
77.44    1361
77.46    2136
77.48    3340
77.5     4552
77.52    5862
77.54    7101
77.56    8001
77.58    8407
77.6     8305
77.62    7743
77.64    6782
77.66    5628
77.68    4562
77.7     3391
77.72    2536
77.74    1920
77.76    1433
77.78    1177
77.8     1018
77.82    989
77.84    845
77.86    727
77.88    683
77.9     569
77.92    531
77.94    493
77.96    364
77.98    310
78.0     283
78.02    268
78.04    216
78.06    249
78.08    336
78.1     338
78.12    337
78.14    367
78.16    435
78.18    468
78.2     446
78.22    442
78.24    471
78.26    503
78.28    448
78.3     363
78.32    280
78.34    384
78.36    453
78.38    429
78.4     332
78.42    320
78.44    291
78.46    233
78.48    176
78.5     198
78.52    205
78.54    360
78.56    419
78.58    385
78.6     355
78.62    427
78.64    475
78.66    466
78.68    508
78.7     508
78.72    464
78.74    457
78.76    433
78.78    348
78.8     278
78.82    347
78.84    385
78.86    308
78.88    304
78.9     246
78.92    241
78.94    201
78.96    206
78.98    167
79.0     144
79.02    203
79.04    329
79.06    294
79.08    355
79.1     388
79.12    465
79.14    462
79.16    501
79.18    484
79.2     468
79.22    422
79.24    474
79.26    437
79.28    415
79.3     423
79.32    454
79.34    434
79.36    470
79.38    426
79.4     370
79.42    311
79.44    320
79.46    375
79.48    331
79.5     364
79.52    387
79.54    325
79.56    286
79.58    224
79.6     158
79.62    183
79.64    274
79.66    323
79.68    318
79.7     343
79.72    362
79.74    299
79.76    325
79.78    412
79.8     410
79.82    433
79.84    444
79.86    373
79.88    340
79.9     346
79.92    431
79.94    492
79.96    635
79.98    798
80.0     828
80.02    813
80.04    793
80.06    726
80.08    643
80.1     629
80.12    629
80.14    549
80.16    490
80.18    423
80.2     370
80.22    315
80.24    298
80.26    275
80.28    250
80.3     300
80.32    357
80.34    338
80.36    332
80.38    340
80.4     370
80.42    378
80.44    396
80.46    385
80.48    338
80.5     345
80.52    431
80.54    405
80.56    387
80.58    380
80.6     317
80.62    261
80.64    240
80.66    199
80.68    119
80.7     192
80.72    321
80.74    367
80.76    396
80.78    407
80.8     360
80.82    374
80.84    371
80.86    379
80.88    366
80.9     450
80.92    528
80.94    542
80.96    522
80.98    468
81.0     432
81.02    465
81.04    396
81.06    383
81.08    328
81.1     322
81.12    317
81.14    227
81.16    172
81.18    139
81.2     190
81.22    230
81.24    221
81.26    198
81.28    196
81.3     253
81.32    280
81.34    260
81.36    295
81.38    350
81.4     424
81.42    417
81.44    383
81.46    299
81.48    277
81.5     282
81.52    279
81.54    262
81.56    266
81.58    277
81.6     244
81.62    203
81.64    164
81.66    152
81.68    185
81.7     219
81.72    313
81.74    385
81.76    368
81.78    341
81.8     322
81.82    323
81.84    282
81.86    273
81.88    241
81.9     270
81.92    300
81.94    327
81.96    262
81.98    207
82.0     195
82.02    208
82.04    211
82.06    267
82.08    357
82.1     416
82.12    391
82.14    447
82.16    439
82.18    357
82.2     362
82.22    383
82.24    355
82.26    357
82.28    336
82.3     287
82.32    233
82.34    235
82.36    280
82.38    289
82.4     302
82.42    311
82.44    291
82.46    296
82.48    291
82.5     344
82.52    382
82.54    438
82.56    461
82.58    436
82.6     328
82.62    292
82.64    209
82.66    155
82.68    139
82.7     113
82.72    115
82.74    93
82.76    124
82.78    189
82.8     237
82.82    280
82.84    293
82.86    365
82.88    384
82.9     338
82.92    325
82.94    295
82.96    298
82.98    321
83.0     318
83.02    303
83.04    313
83.06    330
83.08    300
83.1     318
83.12    325
83.14    334
83.16    289
83.18    302
83.2     297
83.22    307
83.24    281
83.26    275
83.28    288
83.3     296
83.32    258
83.34    299
83.36    300
83.38    341
83.4     310
83.42    292
83.44    235
83.46    286
83.48    282
83.5     256
83.52    243
83.54    283
83.56    314
83.58    373
83.6     303
83.62    313
83.64    328
83.66    417
83.68    393
83.7     404
83.72    360
83.74    357
83.76    383
83.78    368
83.8     289
83.82    254
83.84    246
83.86    232
83.88    206
83.9     225
83.92    175
83.94    207
83.96    278
83.98    270
84.0     254
84.02    256
84.04    253
84.06    241
84.08    236
84.1     249
84.12    204
84.14    240
84.16    249
84.18    289
84.2     272
84.22    275
84.24    281
84.26    293
84.28    269
84.3     282
84.32    302
84.34    371
84.36    380
84.38    442
84.4     403
84.42    359
84.44    382
84.46    365
84.48    308
84.5     250
84.52    232
84.54    265
84.56    273
84.58    272
84.6     273
84.62    319
84.64    418
84.66    452
84.68    488
84.7     530
84.72    597
84.74    593
84.76    579
84.78    543
84.8     541
84.82    560
84.84    555
84.86    513
84.88    493
84.9     494
84.92    482
84.94    383
84.96    323
84.98    267
85.0     267
85.02    227
85.04    226
85.06    188
85.08    170
85.1     137
85.12    109
85.14    107
85.16    113
85.18    152
85.2     220
85.22    284
85.24    354
85.26    301
85.28    318
85.3     237
85.32    200
85.34    204
85.36    266
85.38    371
85.4     456
85.42    542
85.44    498
85.46    448
85.48    446
85.5     318
85.52    233
85.54    190
85.56    169
85.58    220
85.6     271
85.62    273
85.64    245
85.66    304
85.68    306
85.7     338
85.72    333
85.74    350
85.76    313
85.78    318
85.8     266
85.82    238
85.84    277
85.86    244
85.88    268
85.9     346
85.92    401
85.94    394
85.96    317
85.98    285
86.0     254
86.02    318
86.04    334
86.06    305
86.08    357
86.1     388
86.12    417
86.14    374
86.16    361
86.18    329
86.2     344
86.22    347
86.24    327
86.26    325
86.28    353
86.3     467
86.32    618
86.34    769
86.36    1016
86.38    1233
86.4     1493
86.42    1676
86.44    1830
86.46    1787
86.48    1719
86.5     1564
86.52    1337
86.54    1052
86.56    795
86.58    543
86.6     378
86.62    324
86.64    280
86.66    241
86.68    290
86.7     343
86.72    420
86.74    450
86.76    387
86.78    401
86.8     462
86.82    470
86.84    466
86.86    515
86.88    497
86.9     488
86.92    366
86.94    265
86.96    227
86.98    207
87.0     217
87.02    251
87.04    320
87.06    354
87.08    299
87.1     230
87.12    156
87.14    173
87.16    159
87.18    175
87.2     244
87.22    289
87.24    306
87.26    298
87.28    275
87.3     306
87.32    396
87.34    402
87.36    399
87.38    455
87.4     387
87.42    319
87.44    282
87.46    219
87.48    200
87.5     221
87.52    260
87.54    241
87.56    313
87.58    275
87.6     184
87.62    197
87.64    188
87.66    194
87.68    238
87.7     280
87.72    325
87.74    372
87.76    418
87.78    367
87.8     417
87.82    472
87.84    407
87.86    450
87.88    442
87.9     435
87.92    383
87.94    373
87.96    319
87.98    273
88.0     265
88.02    253
88.04    215
88.06    231
88.08    206
88.1     215
88.12    179
88.14    205
88.16    167
88.18    171
88.2     133
88.22    129
88.24    120
88.26    101
88.28    126
88.3     176
88.32    234
88.34    295
88.36    330
88.38    367
88.4     357
88.42    318
88.44    258
88.46    202
88.48    161
88.5     164
88.52    181
88.54    177
88.56    218
88.58    232
88.6     276
88.62    264
88.64    265
88.66    263
88.68    219
88.7     213
88.72    218
88.74    271
88.76    320
88.78    327
88.8     339
88.82    373
88.84    422
88.86    418
88.88    371
88.9     348
88.92    300
88.94    310
88.96    287
88.98    327
89.0     348
89.02    326
89.04    312
89.06    240
89.08    206
89.1     177
89.12    105
89.14    146
89.16    223
89.18    309
89.2     368
89.22    371
89.24    358
89.26    262
89.28    248
89.3     263
89.32    166
89.34    177
89.36    170
89.38    225
89.4     332
89.42    327
89.44    276
89.46    231
89.48    256
89.5     322
89.52    263
89.54    285
89.56    255
89.58    236
89.6     257
89.62    245
89.64    236
89.66    213
89.68    219
89.7     240
89.72    214
89.74    262
89.76    231
89.78    148
89.8     205
89.82    261
89.84    262
89.86    293
89.88    333
89.9     344
89.92    408
89.94    397
89.96    412
89.98    402
90.0     409
