?
5.0      622
5.02     622
5.04     805
5.06     712
5.08     732
5.1      715
5.12     733
5.14     760
5.16     733
5.18     743
5.2      778
5.22     753
5.24     771
5.26     749
5.28     753
5.3      744
5.32     759
5.34     750
5.36     737
5.38     764
5.4      760
5.42     750
5.44     766
5.46     767
5.48     762
5.5      744
5.52     749
5.54     709
5.56     717
5.58     746
5.6      734
5.62     740
5.64     748
5.66     753
5.68     763
5.7      745
5.72     755
5.74     749
5.76     768
5.78     748
5.8      731
5.82     726
5.84     705
5.86     690
5.88     713
5.9      729
5.92     756
5.94     747
5.96     754
5.98     709
6.0      709
6.02     687
6.04     628
6.06     636
6.08     638
6.1      662
6.12     680
6.14     669
6.16     713
6.18     713
6.2      721
6.22     721
6.24     737
6.26     765
6.28     724
6.3      735
6.32     764
6.34     756
6.36     773
6.38     739
6.4      706
6.42     708
6.44     716
6.46     694
6.48     681
6.5      717
6.52     763
6.54     780
6.56     815
6.58     814
6.6      807
6.62     815
6.64     801
6.66     766
6.68     744
6.7      800
6.72     791
6.74     758
6.76     749
6.78     777
6.8      721
6.82     724
6.84     684
6.86     648
6.88     661
6.9      742
6.92     775
6.94     749
6.96     778
6.98     775
7.0      757
7.02     783
7.04     740
7.06     754
7.08     760
7.1      759
7.12     770
7.14     721
7.16     669
7.18     650
7.2      641
7.22     656
7.24     666
7.26     723
7.28     744
7.3      787
7.32     790
7.34     829
7.36     797
7.38     805
7.4      724
7.42     735
7.44     705
7.46     704
7.48     686
7.5      694
7.52     743
7.54     777
7.56     776
7.58     779
7.6      817
7.62     822
7.64     819
7.66     805
7.68     769
7.7      731
7.72     735
7.74     682
7.76     713
7.78     672
7.8      754
7.82     707
7.84     802
7.86     818
7.88     864
7.9      818
7.92     829
7.94     874
7.96     898
7.98     825
8.0      834
8.02     722
8.04     755
8.06     712
8.08     726
8.1      676
8.12     739
8.14     796
8.16     818
8.18     806
8.2      802
8.22     736
8.24     754
8.26     778
8.28     798
8.3      825
8.32     854
8.34     842
8.36     862
8.38     842
8.4      823
8.42     787
8.44     817
8.46     801
8.48     769
8.5      719
8.52     698
8.54     630
8.56     640
8.58     630
8.6      667
8.62     688
8.64     773
8.66     756
8.68     776
8.7      722
8.72     732
8.74     721
8.76     729
8.78     743
8.8      766
8.82     759
8.84     785
8.86     771
8.88     755
8.9      694
8.92     726
8.94     755
8.96     811
8.98     813
9.0      832
9.02     822
9.04     802
9.06     754
9.08     726
9.1      680
9.12     717
9.14     699
9.16     761
9.18     701
9.2      739
9.22     702
9.24     716
9.26     676
9.28     681
9.3      649
9.32     690
9.34     651
9.36     684
9.38     683
9.4      708
9.42     697
9.44     733
9.46     727
9.48     687
9.5      669
9.52     651
9.54     624
9.56     646
9.58     652
9.6      630
9.62     639
9.64     665
9.66     667
9.68     637
9.7      645
9.72     636
9.74     694
9.76     689
9.78     693
9.8      671
9.82     643
9.84     650
9.86     611
9.88     608
9.9      618
9.92     650
9.94     678
9.96     672
9.98     667
10.0     642
10.02    656
10.04    637
10.06    629
10.08    623
10.1     639
10.12    655
10.14    642
10.16    636
10.18    618
10.2     650
10.22    646
10.24    596
10.26    604
10.28    592
10.3     601
10.32    626
10.34    609
10.36    623
10.38    651
10.4     686
10.42    665
10.44    664
10.46    668
10.48    627
10.5     621
10.52    621
10.54    563
10.56    571
10.58    594
10.6     595
10.62    630
10.64    633
10.66    674
10.68    697
10.7     729
10.72    738
10.74    711
10.76    710
10.78    643
10.8     642
10.82    603
10.84    576
10.86    606
10.88    662
10.9     649
10.92    675
10.94    687
10.96    708
10.98    687
11.0     746
11.02    745
11.04    758
11.06    782
11.08    822
11.1     790
11.12    787
11.14    741
11.16    737
11.18    734
11.2     725
11.22    712
11.24    688
11.26    746
11.28    750
11.3     747
11.32    777
11.34    766
11.36    747
11.38    740
11.4     740
11.42    713
11.44    741
11.46    834
11.48    824
11.5     856
11.52    910
11.54    879
11.56    812
11.58    758
11.6     743
11.62    728
11.64    723
11.66    796
11.68    795
11.7     790
11.72    849
11.74    837
11.76    804
11.78    768
11.8     813
11.82    827
11.84    837
11.86    859
11.88    811
11.9     782
11.92    841
11.94    776
11.96    740
11.98    763
12.0     777
12.02    780
12.04    816
12.06    794
12.08    761
12.1     772
12.12    814
12.14    746
12.16    761
12.18    769
12.2     751
12.22    755
12.24    816
12.26    822
12.28    842
12.3     891
12.32    891
12.34    848
12.36    811
12.38    787
12.4     711
12.42    658
12.44    663
12.46    648
12.48    717
12.5     740
12.52    730
12.54    780
12.56    784
12.58    774
12.6     759
12.62    733
12.64    745
12.66    779
12.68    749
12.7     735
12.72    727
12.74    734
12.76    749
12.78    725
12.8     778
12.82    767
12.84    782
12.86    807
12.88    734
12.9     782
12.92    758
12.94    777
12.96    762
12.98    723
13.0     744
13.02    770
13.04    715
13.06    726
13.08    727
13.1     729
13.12    727
13.14    777
13.16    807
13.18    812
13.2     820
13.22    884
13.24    856
13.26    839
13.28    793
13.3     737
13.32    698
13.34    702
13.36    779
13.38    757
13.4     768
13.42    875
13.44    910
13.46    864
13.48    825
13.5     794
13.52    755
13.54    723
13.56    792
13.58    821
13.6     827
13.62    889
13.64    940
13.66    910
13.68    875
13.7     903
13.72    867
13.74    819
13.76    900
13.78    952
13.8     888
13.82    890
13.84    971
13.86    919
13.88    865
13.9     918
13.92    856
13.94    854
13.96    953
13.98    937
14.0     836
14.02    832
14.04    852
14.06    806
14.08    802
14.1     828
14.12    830
14.14    861
14.16    883
14.18    881
14.2     893
14.22    878
14.24    896
14.26    901
14.28    919
14.3     925
14.32    896
14.34    854
14.36    835
14.38    866
14.4     905
14.42    856
14.44    914
14.46    916
14.48    941
14.5     914
14.52    802
14.54    791
14.56    841
14.58    887
14.6     883
14.62    897
14.64    976
14.66    990
14.68    987
14.7     970
14.72    911
14.74    984
14.76    1008
14.78    959
14.8     883
14.82    924
14.84    963
14.86    965
14.88    1016
14.9     1097
14.92    1094
14.94    1148
14.96    1123
14.98    1120
15.0     1096
15.02    1112
15.04    1110
15.06    1066
15.08    1072
15.1     1046
15.12    979
15.14    974
15.16    994
15.18    1045
15.2     1038
15.22    1044
15.24    1076
15.26    1061
15.28    1051
15.3     1014
15.32    1023
15.34    1065
15.36    1068
15.38    1050
15.4     1007
15.42    1017
15.44    1029
15.46    1092
15.48    1119
15.5     1102
15.52    1132
15.54    1141
15.56    1153
15.58    1187
15.6     1198
15.62    1222
15.64    1214
15.66    1290
15.68    1261
15.7     1208
15.72    1203
15.74    1172
15.76    1233
15.78    1313
15.8     1328
15.82    1324
15.84    1320
15.86    1364
15.88    1366
15.9     1407
15.92    1474
15.94    1503
15.96    1620
15.98    1792
16.0     1837
16.02    1890
16.04    2007
16.06    2109
16.08    2157
16.1     2229
16.12    2361
16.14    2538
16.16    2701
16.18    2884
16.2     3061
16.22    3363
16.24    3700
16.26    4040
16.28    4540
16.3     5125
16.32    5798
16.34    6621
16.36    7514
16.38    8669
16.4     10171
16.42    12083
16.44    14315
16.46    17369
16.48    21387
16.5     26310
16.52    32011
16.54    37869
16.56    42278
16.58    44125
16.6     42808
16.62    38547
16.64    31982
16.66    24457
16.68    17164
16.7     11291
16.72    7462
16.74    5474
16.76    4428
16.78    3902
16.8     3473
16.82    3105
16.84    2802
16.86    2581
16.88    2435
16.9     2304
16.92    2122
16.94    1998
16.96    1917
16.98    1854
17.0     1792
17.02    1708
17.04    1691
17.06    1646
17.08    1604
17.1     1552
17.12    1512
17.14    1491
17.16    1417
17.18    1401
17.2     1423
17.22    1423
17.24    1407
17.26    1309
17.28    1259
17.3     1245
17.32    1285
17.34    1322
17.36    1295
17.38    1268
17.4     1215
17.42    1214
17.44    1139
17.46    1084
17.48    1045
17.5     1066
17.52    1167
17.54    1258
17.56    1235
17.58    1164
17.6     1176
17.62    1260
17.64    1266
17.66    1170
17.68    1054
17.7     981
17.72    1008
17.74    984
17.76    987
17.78    966
17.8     969
17.82    1036
17.84    1082
17.86    1053
17.88    1076
17.9     1043
17.92    1026
17.94    1026
17.96    1052
17.98    1002
18.0     994
18.02    997
18.04    1043
18.06    1099
18.08    1136
18.1     1033
18.12    898
18.14    906
18.16    915
18.18    950
18.2     985
18.22    925
18.24    874
18.26    923
18.28    970
18.3     918
18.32    868
18.34    899
18.36    955
18.38    1021
18.4     989
18.42    946
18.44    960
18.46    984
18.48    986
18.5     1023
18.52    997
18.54    934
18.56    941
18.58    950
18.6     938
18.62    935
18.64    933
18.66    896
18.68    898
18.7     950
18.72    914
18.74    895
18.76    937
18.78    944
18.8     952
18.82    918
18.84    873
18.86    894
18.88    814
18.9     828
18.92    825
18.94    853
18.96    828
18.98    790
19.0     805
19.02    852
19.04    894
19.06    903
19.08    866
19.1     922
19.12    984
19.14    1004
19.16    953
19.18    918
19.2     900
19.22    927
19.24    946
19.26    880
19.28    860
19.3     842
19.32    849
19.34    834
19.36    846
19.38    867
19.4     854
19.42    874
19.44    874
19.46    859
19.48    855
19.5     864
19.52    808
19.54    756
19.56    701
19.58    724
19.6     728
19.62    729
19.64    723
19.66    712
19.68    761
19.7     846
19.72    831
19.74    775
19.76    804
19.78    851
19.8     876
19.82    823
19.84    760
19.86    677
19.88    695
19.9     677
19.92    638
19.94    625
19.96    713
19.98    763
20.0     772
20.02    742
20.04    716
20.06    694
20.08    655
20.1     634
20.12    614
20.14    665
20.16    673
20.18    712
20.2     689
20.22    701
20.24    700
20.26    745
20.28    782
20.3     820
20.32    818
20.34    861
20.36    816
20.38    772
20.4     695
20.42    734
20.44    727
20.46    746
20.48    822
20.5     845
20.52    861
20.54    847
20.56    782
20.58    704
20.6     703
20.62    762
20.64    775
20.66    776
20.68    807
20.7     809
20.72    771
20.74    772
20.76    759
20.78    736
20.8     774
20.82    766
20.84    808
20.86    788
20.88    785
20.9     730
20.92    679
20.94    718
20.96    769
20.98    775
21.0     744
21.02    679
21.04    694
21.06    683
21.08    684
21.1     630
21.12    636
21.14    655
21.16    752
21.18    736
21.2     727
21.22    715
21.24    716
21.26    705
21.28    686
21.3     670
21.32    626
21.34    583
21.36    594
21.38    567
21.4     590
21.42    596
21.44    609
21.46    647
21.48    611
21.5     576
21.52    532
21.54    550
21.56    553
21.58    578
21.6     540
21.62    567
21.64    585
21.66    612
21.68    563
21.7     578
21.72    599
21.74    685
21.76    634
21.78    626
21.8     567
21.82    600
21.84    608
21.86    637
21.88    624
21.9     591
21.92    550
21.94    540
21.96    520
21.98    583
22.0     579
22.02    573
22.04    546
22.06    576
22.08    592
22.1     572
22.12    542
22.14    510
22.16    514
22.18    550
22.2     533
22.22    561
22.24    546
22.26    594
22.28    600
22.3     672
22.32    642
22.34    618
22.36    547
22.38    536
22.4     537
22.42    641
22.44    688
22.46    724
22.48    644
22.5     650
22.52    605
22.54    647
22.56    607
22.58    571
22.6     516
22.62    533
22.64    554
22.66    579
22.68    558
22.7     607
22.72    627
22.74    675
22.76    638
22.78    669
22.8     641
22.82    626
22.84    548
22.86    608
22.88    550
22.9     562
22.92    517
22.94    522
22.96    491
22.98    535
23.0     499
23.02    510
23.04    504
23.06    625
23.08    616
23.1     650
23.12    646
23.14    653
23.16    577
23.18    541
23.2     488
23.22    559
23.24    564
23.26    611
23.28    639
23.3     569
23.32    530
23.34    453
23.36    437
23.38    459
23.4     479
23.42    524
23.44    508
23.46    481
23.48    461
23.5     452
23.52    473
23.54    427
23.56    443
23.58    453
23.6     520
23.62    592
23.64    625
23.66    640
23.68    614
23.7     590
23.72    588
23.74    497
23.76    492
23.78    507
23.8     530
23.82    542
23.84    511
23.86    544
23.88    514
23.9     527
23.92    535
23.94    431
23.96    465
23.98    449
24.0     403
24.02    399
24.04    389
24.06    471
24.08    501
24.1     482
24.12    434
24.14    382
24.16    404
24.18    389
24.2     372
24.22    452
24.24    518
24.26    663
24.28    581
24.3     519
24.32    436
24.34    392
24.36    370
24.38    403
24.4     411
24.42    462
24.44    496
24.46    555
24.48    481
24.5     448
24.52    385
24.54    374
24.56    448
24.58    469
24.6     519
24.62    542
24.64    533
24.66    488
24.68    494
24.7     490
24.72    518
24.74    492
24.76    517
24.78    465
24.8     531
24.82    516
24.84    479
24.86    448
24.88    489
24.9     511
24.92    463
24.94    455
24.96    454
24.98    462
25.0     467
25.02    423
25.04    402
25.06    402
25.08    436
25.1     442
25.12    454
25.14    524
25.16    508
25.18    448
25.2     419
25.22    391
25.24    415
25.26    425
25.28    468
25.3     515
25.32    579
25.34    570
25.36    514
25.38    425
25.4     458
25.42    507
25.44    528
25.46    505
25.48    451
25.5     421
25.52    432
25.54    408
25.56    413
25.58    376
25.6     398
25.62    364
25.64    314
25.66    282
25.68    281
25.7     351
25.72    483
25.74    529
25.76    564
25.78    547
25.8     535
25.82    510
25.84    456
25.86    431
25.88    454
25.9     511
25.92    516
25.94    500
25.96    532
25.98    581
26.0     597
26.02    633
26.04    480
26.06    405
26.08    330
26.1     359
26.12    373
26.14    451
26.16    519
26.18    535
26.2     525
26.22    557
26.24    527
26.26    489
26.28    443
26.3     449
26.32    454
26.34    481
26.36    465
26.38    426
26.4     436
26.42    433
26.44    460
26.46    345
26.48    328
26.5     315
26.52    360
26.54    411
26.56    494
26.58    522
26.6     573
26.62    506
26.64    503
26.66    407
26.68    467
26.7     445
26.72    399
26.74    332
26.76    344
26.78    354
26.8     415
26.82    430
26.84    493
26.86    509
26.88    509
26.9     468
26.92    444
26.94    382
26.96    371
26.98    370
27.0     383
27.02    379
27.04    394
27.06    425
27.08    371
27.1     448
27.12    476
27.14    490
27.16    526
27.18    525
27.2     466
27.22    411
27.24    401
27.26    425
27.28    454
27.3     497
27.32    481
27.34    474
27.36    416
27.38    379
27.4     321
27.42    300
27.44    281
27.46    344
27.48    431
27.5     438
27.52    476
27.54    443
27.56    400
27.58    401
27.6     412
27.62    426
27.64    399
27.66    401
27.68    379
27.7     344
27.72    394
27.74    394
27.76    450
27.78    497
27.8     475
27.82    478
27.84    439
27.86    422
27.88    401
27.9     403
27.92    454
27.94    519
27.96    579
27.98    560
28.0     457
28.02    416
28.04    376
28.06    331
28.08    293
28.1     304
28.12    384
28.14    477
28.16    506
28.18    497
28.2     417
28.22    375
28.24    370
28.26    327
28.28    295
28.3     347
28.32    367
28.34    397
28.36    372
28.38    375
28.4     354
28.42    449
28.44    559
28.46    595
28.48    546
28.5     491
28.52    347
28.54    348
28.56    271
28.58    301
28.6     302
28.62    387
28.64    421
28.66    460
28.68    399
28.7     356
28.72    295
28.74    306
28.76    251
28.78    300
28.8     319
28.82    383
28.84    460
28.86    506
28.88    494
28.9     494
28.92    446
28.94    423
28.96    396
28.98    410
29.0     418
29.02    421
29.04    463
29.06    402
29.08    366
29.1     384
29.12    368
29.14    426
29.16    418
29.18    420
29.2     386
29.22    370
29.24    371
29.26    340
29.28    339
29.3     379
29.32    350
29.34    369
29.36    353
29.38    368
29.4     400
29.42    447
29.44    479
29.46    448
29.48    420
29.5     348
29.52    279
29.54    286
29.56    321
29.58    380
29.6     443
29.62    489
29.64    485
29.66    437
29.68    391
29.7     365
29.72    364
29.74    472
29.76    481
29.78    441
29.8     414
29.82    339
29.84    292
29.86    361
29.88    396
29.9     440
29.92    412
29.94    444
29.96    371
29.98    295
30.0     322
30.02    249
30.04    316
30.06    397
30.08    378
30.1     390
30.12    352
30.14    382
30.16    389
30.18    434
30.2     543
30.22    533
30.24    571
30.26    519
30.28    371
30.3     353
30.32    315
30.34    347
30.36    380
30.38    429
30.4     447
30.42    392
30.44    360
30.46    333
30.48    339
30.5     406
30.52    411
30.54    409
30.56    403
30.58    389
30.6     370
30.62    295
30.64    279
30.66    278
30.68    305
30.7     290
30.72    321
30.74    280
30.76    322
30.78    385
30.8     417
30.82    472
30.84    495
30.86    450
30.88    454
30.9     408
30.92    423
30.94    392
30.96    412
30.98    441
31.0     449
31.02    444
31.04    313
31.06    251
31.08    229
31.1     244
31.12    327
31.14    440
31.16    537
31.18    596
31.2     555
31.22    433
31.24    250
31.26    176
31.28    174
31.3     294
31.32    438
31.34    548
31.36    610
31.38    580
31.4     503
31.42    444
31.44    339
31.46    281
31.48    367
31.5     379
31.52    430
31.54    411
31.56    380
31.58    408
31.6     391
31.62    420
31.64    444
31.66    476
31.68    592
31.7     547
31.72    534
31.74    452
31.76    386
31.78    371
31.8     307
31.82    342
31.84    391
31.86    392
31.88    464
31.9     494
31.92    524
31.94    500
31.96    469
31.98    433
32.0     374
32.02    318
32.04    320
32.06    329
32.08    369
32.1     429
32.12    476
32.14    527
32.16    541
32.18    588
32.2     568
32.22    606
32.24    699
32.26    750
32.28    734
32.3     756
32.32    661
32.34    622
32.36    550
32.38    521
32.4     477
32.42    497
32.44    532
32.46    577
32.48    587
32.5     646
32.52    574
32.54    576
32.56    590
32.58    577
32.6     507
32.62    499
32.64    485
32.66    468
32.68    458
32.7     472
32.72    422
32.74    464
32.76    535
32.78    554
32.8     561
32.82    604
32.84    562
32.86    621
32.88    675
32.9     668
32.92    668
32.94    707
32.96    671
32.98    582
33.0     483
33.02    356
33.04    312
33.06    441
33.08    499
33.1     579
33.12    679
33.14    723
33.16    677
33.18    618
33.2     546
33.22    543
33.24    605
33.26    733
33.28    819
33.3     925
33.32    1064
33.34    1139
33.36    1286
33.38    1491
33.4     1675
33.42    2067
33.44    2523
33.46    3186
33.48    4204
33.5     5539
33.52    7202
33.54    8918
33.56    10447
33.58    11247
33.6     11287
33.62    10622
33.64    9196
33.66    7372
33.68    5542
33.7     3998
33.72    2908
33.74    2249
33.76    1877
33.78    1565
33.8     1450
33.82    1355
33.84    1221
33.86    1110
33.88    999
33.9     1009
33.92    1003
33.94    986
33.96    961
33.98    888
34.0     762
34.02    719
34.04    713
34.06    691
34.08    713
34.1     740
34.12    704
34.14    718
34.16    691
34.18    565
34.2     464
34.22    430
34.24    445
34.26    499
34.28    640
34.3     734
34.32    797
34.34    859
34.36    832
34.38    698
34.4     616
34.42    481
34.44    447
34.46    499
34.48    597
34.5     660
34.52    682
34.54    655
34.56    627
34.58    571
34.6     584
34.62    547
34.64    619
34.66    654
34.68    697
34.7     730
34.72    723
34.74    644
34.76    615
34.78    621
34.8     632
34.82    596
34.84    673
34.86    696
34.88    847
34.9     1004
34.92    1128
34.94    1313
34.96    1616
34.98    2172
35.0     2978
35.02    4172
35.04    5967
35.06    8115
35.08    10151
35.1     11476
35.12    12000
35.14    11532
35.16    10191
35.18    8356
35.2     6292
35.22    4377
35.24    3114
35.26    2380
35.28    1928
35.3     1619
35.32    1539
35.34    1384
35.36    1275
35.38    1269
35.4     1209
35.42    1095
35.44    1019
35.46    925
35.48    880
35.5     858
35.52    874
35.54    854
35.56    782
35.58    778
35.6     747
35.62    706
35.64    689
35.66    705
35.68    735
35.7     741
35.72    754
35.74    726
35.76    691
35.78    685
35.8     714
35.82    704
35.84    733
35.86    738
35.88    716
35.9     691
35.92    657
35.94    654
35.96    701
35.98    761
36.0     823
36.02    861
36.04    864
36.06    834
36.08    868
36.1     952
36.12    952
36.14    1044
36.16    1154
36.18    1273
36.2     1415
36.22    1622
36.24    1801
36.26    2085
36.28    2509
36.3     3101
36.32    3694
36.34    4710
36.36    6285
36.38    8678
36.4     12171
36.42    16461
36.44    20559
36.46    23621
36.48    24952
36.5     24259
36.52    21606
36.54    17675
36.56    13188
36.58    9076
36.6     6096
36.62    4225
36.64    3165
36.66    2531
36.68    2156
36.7     1878
36.72    1717
36.74    1557
36.76    1410
36.78    1225
36.8     1083
36.82    864
36.84    832
36.86    781
36.88    786
36.9     788
36.92    855
36.94    854
36.96    899
36.98    858
37.0     800
37.02    745
37.04    761
37.06    750
37.08    698
37.1     674
37.12    706
37.14    713
37.16    741
37.18    719
37.2     695
37.22    745
37.24    777
37.26    806
37.28    803
37.3     851
37.32    854
37.34    873
37.36    917
37.38    945
37.4     916
37.42    883
37.44    830
37.46    704
37.48    614
37.5     549
37.52    499
37.54    484
37.56    528
37.58    580
37.6     591
37.62    599
37.64    597
37.66    540
37.68    514
37.7     544
37.72    569
37.74    593
37.76    623
37.78    656
37.8     599
37.82    563
37.84    515
37.86    461
37.88    466
37.9     539
37.92    561
37.94    587
37.96    632
37.98    641
38.0     576
38.02    581
38.04    553
38.06    477
38.08    513
38.1     473
38.12    467
38.14    465
38.16    592
38.18    597
38.2     632
38.22    637
38.24    611
38.26    527
38.28    462
38.3     343
38.32    387
38.34    369
38.36    452
38.38    462
38.4     541
38.42    477
38.44    505
38.46    463
38.48    429
38.5     393
38.52    496
38.54    419
38.56    465
38.58    505
38.6     483
38.62    397
38.64    511
38.66    542
38.68    592
38.7     591
38.72    628
38.74    516
38.76    527
38.78    455
38.8     378
38.82    308
38.84    375
38.86    380
38.88    424
38.9     441
38.92    460
38.94    464
38.96    533
38.98    537
39.0     545
39.02    476
39.04    449
39.06    403
39.08    423
39.1     413
39.12    417
39.14    443
39.16    483
39.18    514
39.2     490
39.22    478
39.24    457
39.26    413
39.28    397
39.3     373
39.32    369
39.34    296
39.36    345
39.38    424
39.4     458
39.42    490
39.44    497
39.46    489
39.48    465
39.5     454
39.52    441
39.54    396
39.56    458
39.58    518
39.6     530
39.62    523
39.64    532
39.66    547
39.68    483
39.7     457
39.72    453
39.74    480
39.76    464
39.78    558
39.8     599
39.82    612
39.84    612
39.86    629
39.88    526
39.9     484
39.92    459
39.94    464
39.96    407
39.98    516
40.0     593
40.02    668
40.04    791
40.06    944
40.08    889
40.1     904
40.12    856
40.14    756
40.16    634
40.18    663
40.2     641
40.22    662
40.24    708
40.26    823
40.28    785
40.3     849
40.32    842
40.34    819
40.36    789
40.38    831
40.4     826
40.42    817
40.44    853
40.46    949
40.48    892
40.5     877
40.52    871
40.54    857
40.56    821
40.58    856
40.6     850
40.62    872
40.64    972
40.66    1041
40.68    1067
40.7     1057
40.72    1135
40.74    1160
40.76    1143
40.78    1211
40.8     1212
40.82    1224
40.84    1291
40.86    1383
40.88    1446
40.9     1528
40.92    1610
40.94    1642
40.96    1739
40.98    1835
41.0     1822
41.02    1814
41.04    1947
41.06    1997
41.08    2087
41.1     2262
41.12    2405
41.14    2622
41.16    2882
41.18    3160
41.2     3418
41.22    3772
41.24    4221
41.26    4619
41.28    5226
41.3     6016
41.32    7065
41.34    8472
41.36    10341
41.38    12806
41.4     16326
41.42    21323
41.44    28736
41.46    39211
41.48    52548
41.5     66700
41.52    78531
41.54    85383
41.56    85766
41.58    79516
41.6     68114
41.62    53571
41.64    38945
41.66    26748
41.68    18323
41.7     13094
41.72    9777
41.74    7506
41.76    5978
41.78    4953
41.8     4329
41.82    3961
41.84    3698
41.86    3475
41.88    3248
41.9     2906
41.92    2570
41.94    2168
41.96    1891
41.98    1677
42.0     1560
42.02    1512
42.04    1538
42.06    1594
42.08    1600
42.1     1525
42.12    1539
42.14    1444
42.16    1362
42.18    1237
42.2     1162
42.22    1109
42.24    1029
42.26    990
42.28    1006
42.3     1044
42.32    1171
42.34    1173
42.36    1208
42.38    1116
42.4     1048
42.42    941
42.44    806
42.46    729
42.48    734
42.5     764
42.52    832
42.54    817
42.56    878
42.58    903
42.6     862
42.62    781
42.64    703
42.66    684
42.68    722
42.7     752
42.72    822
42.74    843
42.76    898
42.78    897
42.8     811
42.82    723
42.84    668
42.86    653
42.88    615
42.9     630
42.92    715
42.94    742
42.96    812
42.98    802
43.0     823
43.02    761
43.04    767
43.06    737
43.08    668
43.1     693
43.12    663
43.14    663
43.16    721
43.18    772
43.2     808
43.22    762
43.24    793
43.26    802
43.28    753
43.3     726
43.32    637
43.34    605
43.36    543
43.38    522
43.4     483
43.42    493
43.44    511
43.46    553
43.48    601
43.5     627
43.52    584
43.54    570
43.56    575
43.58    549
43.6     596
43.62    628
43.64    604
43.66    653
43.68    604
43.7     612
43.72    540
43.74    580
43.76    605
43.78    583
43.8     638
43.82    599
43.84    624
43.86    667
43.88    696
43.9     792
43.92    769
43.94    794
43.96    767
43.98    724
44.0     629
44.02    544
44.04    531
44.06    536
44.08    570
44.1     595
44.12    616
44.14    638
44.16    636
44.18    617
44.2     618
44.22    612
44.24    616
44.26    657
44.28    676
44.3     643
44.32    594
44.34    535
44.36    435
44.38    365
44.4     390
44.42    400
44.44    465
44.46    531
44.48    585
44.5     557
44.52    539
44.54    550
44.56    494
44.58    486
44.6     519
44.62    577
44.64    589
44.66    586
44.68    582
44.7     583
44.72    656
44.74    695
44.76    752
44.78    781
44.8     808
44.82    863
44.84    784
44.86    767
44.88    713
44.9     724
44.92    759
44.94    827
44.96    1111
44.98    1377
45.0     1684
45.02    2049
45.04    2255
45.06    2389
45.08    2212
45.1     2031
45.12    1737
45.14    1430
45.16    1171
45.18    953
45.2     849
45.22    834
45.24    790
45.26    729
45.28    582
45.3     570
45.32    533
45.34    477
45.36    448
45.38    511
45.4     626
45.42    733
45.44    785
45.46    822
45.48    794
45.5     708
45.52    606
45.54    459
45.56    454
45.58    423
45.6     406
45.62    484
45.64    468
45.66    521
45.68    490
45.7     532
45.72    533
45.74    480
45.76    564
45.78    452
45.8     421
45.82    456
45.84    374
45.86    396
45.88    381
45.9     502
45.92    485
45.94    494
45.96    573
45.98    522
46.0     554
46.02    529
46.04    494
46.06    490
46.08    446
46.1     472
46.12    453
46.14    468
46.16    555
46.18    549
46.2     620
46.22    608
46.24    585
46.26    534
46.28    441
46.3     438
46.32    386
46.34    355
46.36    421
46.38    465
46.4     628
46.42    649
46.44    658
46.46    637
46.48    595
46.5     570
46.52    512
46.54    459
46.56    460
46.58    448
46.6     485
46.62    463
46.64    485
46.66    528
46.68    552
46.7     548
46.72    506
46.74    405
46.76    332
46.78    238
46.8     198
46.82    158
46.84    217
46.86    362
46.88    462
46.9     538
46.92    609
46.94    645
46.96    652
46.98    632
47.0     568
47.02    511
47.04    512
47.06    529
47.08    547
47.1     550
47.12    626
47.14    619
47.16    585
47.18    550
47.2     492
47.22    438
47.24    386
47.26    417
47.28    457
47.3     498
47.32    545
47.34    573
47.36    641
47.38    717
47.4     706
47.42    643
47.44    612
47.46    569
47.48    457
47.5     378
47.52    302
47.54    284
47.56    319
47.58    344
47.6     374
47.62    420
47.64    566
47.66    604
47.68    625
47.7     659
47.72    622
47.74    579
47.76    516
47.78    446
47.8     400
47.82    400
47.84    479
47.86    482
47.88    494
47.9     489
47.92    474
47.94    513
47.96    533
47.98    566
48.0     532
48.02    526
48.04    479
48.06    425
48.08    408
48.1     358
48.12    380
48.14    433
48.16    531
48.18    585
48.2     600
48.22    588
48.24    533
48.26    510
48.28    489
48.3     468
48.32    458
48.34    464
48.36    467
48.38    438
48.4     476
48.42    492
48.44    483
48.46    489
48.48    517
48.5     582
48.52    594
48.54    571
48.56    542
48.58    551
48.6     557
48.62    513
48.64    466
48.66    448
48.68    472
48.7     442
48.72    406
48.74    397
48.76    471
48.78    511
48.8     538
48.82    505
48.84    516
48.86    485
48.88    437
48.9     398
48.92    380
48.94    394
48.96    421
48.98    478
49.0     512
49.02    485
49.04    512
49.06    494
49.08    506
49.1     520
49.12    488
49.14    471
49.16    453
49.18    466
49.2     410
49.22    373
49.24    410
49.26    465
49.28    495
49.3     519
49.32    518
49.34    566
49.36    518
49.38    454
49.4     393
49.42    377
49.44    400
49.46    392
49.48    411
49.5     463
49.52    557
49.54    652
49.56    624
49.58    632
49.6     594
49.62    557
49.64    472
49.66    325
49.68    275
49.7     239
49.72    297
49.74    351
49.76    413
49.78    485
49.8     550
49.82    578
49.84    536
49.86    461
49.88    399
49.9     393
49.92    386
49.94    412
49.96    504
49.98    476
50.0     533
50.02    495
50.04    541
50.06    495
50.08    463
50.1     443
50.12    437
50.14    463
50.16    489
50.18    415
50.2     439
50.22    439
50.24    492
50.26    467
50.28    439
50.3     378
50.32    420
50.34    437
50.36    491
50.38    460
50.4     452
50.42    445
50.44    384
50.46    366
50.48    289
50.5     278
50.52    378
50.54    464
50.56    567
50.58    613
50.6     668
50.62    654
50.64    561
50.66    500
50.68    336
50.7     235
50.72    227
50.74    221
50.76    311
50.78    424
50.8     531
50.82    678
50.84    769
50.86    776
50.88    708
50.9     611
50.92    595
50.94    561
50.96    531
50.98    513
51.0     525
51.02    547
51.04    542
51.06    479
51.08    477
51.1     447
51.12    470
51.14    424
51.16    444
51.18    484
51.2     498
51.22    520
51.24    604
51.26    625
51.28    653
51.3     646
51.32    631
51.34    564
51.36    554
51.38    461
51.4     420
51.42    430
51.44    421
51.46    367
51.48    381
51.5     433
51.52    554
51.54    597
51.56    612
51.58    624
51.6     655
51.62    659
51.64    614
51.66    531
51.68    510
51.7     505
51.72    477
51.74    414
51.76    369
51.78    363
51.8     423
51.82    493
51.84    551
51.86    598
51.88    625
51.9     658
51.92    709
51.94    646
51.96    583
51.98    545
52.0     591
52.02    632
52.04    650
52.06    620
52.08    616
52.1     609
52.12    614
52.14    477
52.16    430
52.18    414
52.2     465
52.22    497
52.24    533
52.26    544
52.28    594
52.3     625
52.32    593
52.34    584
52.36    626
52.38    606
52.4     546
52.42    495
52.44    471
52.46    490
52.48    433
52.5     445
52.52    418
52.54    510
52.56    536
52.58    581
52.6     552
52.62    611
52.64    584
52.66    581
52.68    503
52.7     546
52.72    525
52.74    575
52.76    478
52.78    522
52.8     511
52.82    545
52.84    500
52.86    539
52.88    580
52.9     693
52.92    637
52.94    659
52.96    560
52.98    617
53.0     623
53.02    606
53.04    565
53.06    628
53.08    737
53.1     829
53.12    836
53.14    919
53.16    985
53.18    1123
53.2     1124
53.22    1118
53.24    1119
53.26    1188
53.28    1383
53.3     1550
53.32    1771
53.34    2219
53.36    2835
53.38    3648
53.4     4509
53.42    5433
53.44    6282
53.46    6937
53.48    7220
53.5     6948
53.52    6351
53.54    5560
53.56    4640
53.58    3767
53.6     3028
53.62    2423
53.64    2082
53.66    1818
53.68    1568
53.7     1399
53.72    1314
53.74    1152
53.76    1013
53.78    921
53.8     864
53.82    771
53.84    756
53.86    652
53.88    667
53.9     758
53.92    776
53.94    737
53.96    708
53.98    693
54.0     696
54.02    663
54.04    646
54.06    600
54.08    596
54.1     600
54.12    578
54.14    564
54.16    540
54.18    547
54.2     518
54.22    496
54.24    521
54.26    515
54.28    502
54.3     495
54.32    490
54.34    506
54.36    505
54.38    513
54.4     504
54.42    567
54.44    618
54.46    654
54.48    648
54.5     650
54.52    615
54.54    541
54.56    437
54.58    342
54.6     326
54.62    310
54.64    268
54.66    257
54.68    300
54.7     316
54.72    321
54.74    333
54.76    400
54.78    463
54.8     594
54.82    669
54.84    670
54.86    635
54.88    646
54.9     544
54.92    411
54.94    273
54.96    176
54.98    138
55.0     186
55.02    237
55.04    310
55.06    369
55.08    552
55.1     659
55.12    637
55.14    640
55.16    606
55.18    591
55.2     527
55.22    431
55.24    371
55.26    331
55.28    384
55.3     385
55.32    378
55.34    475
55.36    491
55.38    528
55.4     571
55.42    572
55.44    570
55.46    593
55.48    622
55.5     669
55.52    695
55.54    697
55.56    646
55.58    669
55.6     703
55.62    641
55.64    579
55.66    573
55.68    591
55.7     633
55.72    579
55.74    521
55.76    475
55.78    451
55.8     439
55.82    412
55.84    392
55.86    431
55.88    499
55.9     536
55.92    552
55.94    588
55.96    614
55.98    658
56.0     672
56.02    629
56.04    569
56.06    489
56.08    402
56.1     336
56.12    326
56.14    356
56.16    448
56.18    508
56.2     531
56.22    511
56.24    508
56.26    571
56.28    580
56.3     596
56.32    597
56.34    613
56.36    659
56.38    671
56.4     616
56.42    523
56.44    538
56.46    554
56.48    512
56.5     460
56.52    412
56.54    444
56.56    515
56.58    524
56.6     471
56.62    411
56.64    448
56.66    421
56.68    460
56.7     418
56.72    457
56.74    538
56.76    591
56.78    594
56.8     596
56.82    565
56.84    561
56.86    557
56.88    536
56.9     483
56.92    503
56.94    559
56.96    652
56.98    702
57.0     743
57.02    780
57.04    768
57.06    727
57.08    654
57.1     563
57.12    514
57.14    493
57.16    510
57.18    504
57.2     455
57.22    533
57.24    554
57.26    586
57.28    649
57.3     705
57.32    757
57.34    764
57.36    810
57.38    813
57.4     772
57.42    784
57.44    720
57.46    744
57.48    739
57.5     756
57.52    707
57.54    647
57.56    566
57.58    575
57.6     561
57.62    572
57.64    581
57.66    689
57.68    742
57.7     872
57.72    945
57.74    991
57.76    983
57.78    1030
57.8     1083
57.82    1123
57.84    1110
57.86    1140
57.88    1130
57.9     1272
57.92    1406
57.94    1455
57.96    1584
57.98    1722
58.0     1893
58.02    2051
58.04    2229
58.06    2400
58.08    2670
58.1     3133
58.12    3674
58.14    4375
58.16    5459
58.18    6736
58.2     8386
58.22    10392
58.24    12534
58.26    14444
58.28    15857
58.3     16447
58.32    16164
58.34    15067
58.36    13259
58.38    11011
58.4     8904
58.42    7052
58.44    5618
58.46    4598
58.48    3772
58.5     3127
58.52    2690
58.54    2418
58.56    2096
58.58    1832
58.6     1669
58.62    1434
58.64    1280
58.66    1250
58.68    1172
58.7     1026
58.72    998
58.74    1044
58.76    993
58.78    968
58.8     903
58.82    792
58.84    674
58.86    706
58.88    689
58.9     595
58.92    634
58.94    661
58.96    646
58.98    671
59.0     700
59.02    706
59.04    693
59.06    753
59.08    706
59.1     646
59.12    643
59.14    652
59.16    589
59.18    581
59.2     615
59.22    673
59.24    717
59.26    716
59.28    682
59.3     652
59.32    646
59.34    627
59.36    580
59.38    490
59.4     450
59.42    455
59.44    377
59.46    341
59.48    371
59.5     401
59.52    398
59.54    443
59.56    466
59.58    486
59.6     558
59.62    613
59.64    649
59.66    662
59.68    690
59.7     725
59.72    711
59.74    676
59.76    617
59.78    625
59.8     612
59.82    636
59.84    632
59.86    587
59.88    521
59.9     539
59.92    539
59.94    475
59.96    428
59.98    354
60.0     356
60.02    351
60.04    309
60.06    277
60.08    250
60.1     297
60.12    375
60.14    379
60.16    436
60.18    538
60.2     654
60.22    720
60.24    737
60.26    705
60.28    659
60.3     589
60.32    515
60.34    394
60.36    348
60.38    338
60.4     345
60.42    380
60.44    443
60.46    481
60.48    489
60.5     539
60.52    563
60.54    596
60.56    581
60.58    585
60.6     580
60.62    590
60.64    613
60.66    587
60.68    598
60.7     620
60.72    582
60.74    603
60.76    621
60.78    665
60.8     623
60.82    573
60.84    521
60.86    509
60.88    541
60.9     552
60.92    454
60.94    434
60.96    481
60.98    484
61.0     462
61.02    467
61.04    500
61.06    576
61.08    634
61.1     688
61.12    647
61.14    619
61.16    610
61.18    556
61.2     516
61.22    508
61.24    459
61.26    404
61.28    417
61.3     443
61.32    410
61.34    418
61.36    472
61.38    530
61.4     544
61.42    620
61.44    630
61.46    569
61.48    648
61.5     627
61.52    622
61.54    627
61.56    641
61.58    692
61.6     673
61.62    747
61.64    714
61.66    661
61.68    674
61.7     631
61.72    690
61.74    732
61.76    806
61.78    964
61.8     1074
61.82    1233
61.84    1350
61.86    1484
61.88    1637
61.9     1850
61.92    2156
61.94    2561
61.96    3120
61.98    4022
62.0     5195
62.02    6891
62.04    9170
62.06    11838
62.08    14682
62.1     17273
62.12    19024
62.14    19682
62.16    19128
62.18    17446
62.2     14896
62.22    12100
62.24    9352
62.26    7000
62.28    5251
62.3     4053
62.32    3155
62.34    2588
62.36    2258
62.38    1958
62.4     1760
62.42    1622
62.44    1438
62.46    1238
62.48    1095
62.5     1021
62.52    890
62.54    765
62.56    752
62.58    721
62.6     715
62.62    710
62.64    737
62.66    716
62.68    793
62.7     871
62.72    846
62.74    716
62.76    743
62.78    685
62.8     601
62.82    513
62.84    478
62.86    395
62.88    435
62.9     474
62.92    500
62.94    512
62.96    619
62.98    646
63.0     684
63.02    647
63.04    656
63.06    579
63.08    544
63.1     533
63.12    532
63.14    571
63.16    589
63.18    578
63.2     594
63.22    518
63.24    525
63.26    478
63.28    436
63.3     496
63.32    514
63.34    524
63.36    572
63.38    549
63.4     586
63.42    497
63.44    510
63.46    505
63.48    511
63.5     505
63.52    439
63.54    401
63.56    507
63.58    483
63.6     555
63.62    540
63.64    600
63.66    613
63.68    613
63.7     549
63.72    522
63.74    459
63.76    500
63.78    421
63.8     426
63.82    402
63.84    430
63.86    482
63.88    544
63.9     555
63.92    597
63.94    576
63.96    593
63.98    556
64.0     547
64.02    519
64.04    511
64.06    475
64.08    455
64.1     430
64.12    464
64.14    504
64.16    490
64.18    477
64.2     524
64.22    563
64.24    610
64.26    538
64.28    586
64.3     624
64.32    604
64.34    617
64.36    599
64.38    577
64.4     627
64.42    714
64.44    761
64.46    724
64.48    753
64.5     740
64.52    678
64.54    681
64.56    734
64.58    807
64.6     886
64.62    1037
64.64    1244
64.66    1501
64.68    1861
64.7     2355
64.72    2951
64.74    3608
64.76    4198
64.78    4720
64.8     4974
64.82    4979
64.84    4763
64.86    4311
64.88    3757
64.9     3107
64.92    2536
64.94    2053
64.96    1608
64.98    1295
65.0     1110
65.02    940
65.04    855
65.06    797
65.08    776
65.1     780
65.12    765
65.14    767
65.16    782
65.18    680
65.2     600
65.22    487
65.24    412
65.26    355
65.28    270
65.3     295
65.32    282
65.34    263
65.36    342
65.38    375
65.4     385
65.42    419
65.44    472
65.46    606
65.48    583
65.5     607
65.52    639
65.54    614
65.56    607
65.58    593
65.6     540
65.62    507
65.64    434
65.66    407
65.68    329
65.7     248
65.72    228
65.74    241
65.76    226
65.78    269
65.8     327
65.82    419
65.84    439
65.86    452
65.88    490
65.9     471
65.92    435
65.94    447
65.96    463
65.98    428
66.0     326
66.02    300
66.04    230
66.06    205
66.08    214
66.1     240
66.12    229
66.14    209
66.16    250
66.18    260
66.2     288
66.22    399
66.24    451
66.26    580
66.28    658
66.3     670
66.32    625
66.34    488
66.36    424
66.38    406
66.4     366
66.42    375
66.44    336
66.46    279
66.48    250
66.5     190
66.52    149
66.54    189
66.56    271
66.58    355
66.6     384
66.62    429
66.64    426
66.66    444
66.68    547
66.7     575
66.72    572
66.74    620
66.76    558
66.78    500
66.8     466
66.82    417
66.84    395
66.86    371
66.88    354
66.9     344
66.92    334
66.94    344
66.96    326
66.98    335
67.0     390
67.02    374
67.04    394
67.06    347
67.08    324
67.1     347
67.12    408
67.14    486
67.16    535
67.18    470
67.2     464
67.22    424
67.24    421
67.26    421
67.28    436
67.3     427
67.32    417
67.34    432
67.36    466
67.38    472
67.4     529
67.42    562
67.44    526
67.46    481
67.48    445
67.5     386
67.52    332
67.54    304
67.56    273
67.58    274
67.6     262
67.62    284
67.64    320
67.66    306
67.68    374
67.7     387
67.72    388
67.74    427
67.76    439
67.78    441
67.8     435
67.82    503
67.84    556
67.86    550
67.88    549
67.9     488
67.92    407
67.94    407
67.96    468
67.98    454
68.0     430
68.02    416
68.04    371
68.06    326
68.08    266
68.1     275
68.12    250
68.14    261
68.16    319
68.18    353
68.2     404
68.22    504
68.24    532
68.26    540
68.28    526
68.3     532
68.32    489
68.34    455
68.36    444
68.38    448
68.4     466
68.42    493
68.44    443
68.46    383
68.48    345
68.5     380
68.52    393
68.54    473
68.56    564
68.58    574
68.6     588
68.62    619
68.64    667
68.66    668
68.68    672
68.7     679
68.72    667
68.74    702
68.76    798
68.78    876
68.8     1000
68.82    1188
68.84    1379
68.86    1546
68.88    1796
68.9     2157
68.92    2568
68.94    3061
68.96    3582
68.98    3985
69.0     4295
69.02    4364
69.04    4265
69.06    3967
69.08    3599
69.1     3162
69.12    2673
69.14    2237
69.16    1844
69.18    1545
69.2     1335
69.22    1143
69.24    1096
69.26    1037
69.28    904
69.3     778
69.32    743
69.34    667
69.36    628
69.38    602
69.4     558
69.42    542
69.44    549
69.46    509
69.48    458
69.5     438
69.52    488
69.54    430
69.56    423
69.58    375
69.6     393
69.62    393
69.64    395
69.66    473
69.68    547
69.7     581
69.72    596
69.74    616
69.76    618
69.78    640
69.8     626
69.82    609
69.84    591
69.86    584
69.88    486
69.9     413
69.92    392
69.94    393
69.96    386
69.98    368
70.0     405
70.02    412
70.04    417
70.06    403
70.08    350
70.1     310
70.12    314
70.14    281
70.16    223
70.18    271
70.2     369
70.22    381
70.24    494
70.26    535
70.28    583
70.3     632
70.32    714
70.34    718
70.36    720
70.38    781
70.4     740
70.42    746
70.44    738
70.46    761
70.48    808
70.5     897
70.52    1017
70.54    1182
70.56    1395
70.58    1592
70.6     1842
70.62    1994
70.64    2089
70.66    2123
70.68    2045
70.7     1912
70.72    1755
70.74    1584
70.76    1404
70.78    1277
70.8     1131
70.82    976
70.84    869
70.86    781
70.88    676
70.9     637
70.92    620
70.94    531
70.96    494
70.98    470
71.0     415
71.02    439
71.04    454
71.06    471
71.08    443
71.1     520
71.12    540
71.14    540
71.16    563
71.18    570
71.2     570
71.22    530
71.24    504
71.26    474
71.28    483
71.3     475
71.32    442
71.34    425
71.36    447
71.38    433
71.4     368
71.42    310
71.44    304
71.46    318
71.48    342
71.5     331
71.52    396
71.54    455
71.56    514
71.58    540
71.6     513
71.62    539
71.64    539
71.66    517
71.68    481
71.7     441
71.72    471
71.74    371
71.76    283
71.78    252
71.8     251
71.82    287
71.84    402
71.86    443
71.88    525
71.9     585
71.92    637
71.94    597
71.96    595
71.98    537
72.0     484
72.02    478
72.04    526
72.06    521
72.08    532
72.1     526
72.12    614
72.14    680
72.16    720
72.18    787
72.2     841
72.22    915
72.24    958
72.26    1031
72.28    1059
72.3     1125
72.32    1230
72.34    1296
72.36    1495
72.38    1802
72.4     2102
72.42    2509
72.44    3063
72.46    3721
72.48    4315
72.5     4821
72.52    5187
72.54    5314
72.56    5224
72.58    4876
72.6     4408
72.62    3884
72.64    3393
72.66    2885
72.68    2453
72.7     2110
72.72    1806
72.74    1466
72.76    1181
72.78    998
72.8     931
72.82    852
72.84    823
72.86    824
72.88    857
72.9     870
72.92    809
72.94    746
72.96    723
72.98    682
73.0     635
73.02    563
73.04    554
73.06    530
73.08    499
73.1     523
73.12    546
73.14    537
73.16    523
73.18    473
73.2     479
73.22    527
73.24    555
73.26    570
73.28    634
73.3     693
73.32    763
73.34    817
73.36    864
73.38    976
73.4     1065
73.42    1115
73.44    1125
73.46    1152
73.48    1142
73.5     1063
73.52    999
73.54    927
73.56    861
73.58    833
73.6     743
73.62    708
73.64    737
73.66    749
73.68    674
73.7     584
73.72    528
73.74    456
73.76    447
73.78    424
73.8     441
73.82    464
73.84    485
73.86    494
73.88    503
73.9     504
73.92    581
73.94    652
73.96    747
73.98    807
74.0     810
74.02    803
74.04    728
74.06    784
74.08    804
74.1     778
74.12    863
74.14    1074
74.16    1341
74.18    1649
74.2     1950
74.22    2250
74.24    2466
74.26    2685
74.28    2676
74.3     2524
74.32    2330
74.34    2157
74.36    1847
74.38    1605
74.4     1393
74.42    1172
74.44    1087
74.46    963
74.48    845
74.5     740
74.52    675
74.54    641
74.56    548
74.58    614
74.6     620
74.62    645
74.64    708
74.66    697
74.68    797
74.7     869
74.72    989
74.74    1150
74.76    1333
74.78    1566
74.8     1717
74.82    1928
74.84    2068
74.86    2167
74.88    2264
74.9     2204
74.92    2071
74.94    1942
74.96    1740
74.98    1554
75.0     1385
75.02    1291
75.04    1235
75.06    1175
75.08    1113
75.1     965
75.12    859
75.14    847
75.16    745
75.18    690
75.2     637
75.22    638
75.24    607
75.26    510
75.28    417
75.3     346
75.32    384
75.34    439
75.36    389
75.38    444
75.4     506
75.42    547
75.44    492
75.46    445
75.48    494
75.5     505
75.52    548
75.54    543
75.56    441
75.58    503
75.6     451
75.62    369
75.64    294
75.66    324
75.68    415
75.7     368
75.72    323
75.74    328
75.76    311
75.78    349
75.8     301
75.82    320
75.84    351
75.86    430
75.88    408
75.9     307
75.92    221
75.94    277
75.96    298
75.98    321
76.0     381
76.02    471
76.04    511
76.06    516
76.08    458
76.1     412
76.12    413
76.14    467
76.16    452
76.18    463
76.2     459
76.22    419
76.24    289
76.26    252
76.28    210
76.3     226
76.32    270
76.34    248
76.36    231
76.38    257
76.4     274
76.42    294
76.44    288
76.46    408
76.48    443
76.5     479
76.52    463
76.54    395
76.56    352
76.58    362
76.6     368
76.62    398
76.64    418
76.66    449
76.68    365
76.7     303
76.72    281
76.74    289
76.76    298
76.78    370
76.8     377
76.82    420
76.84    460
76.86    483
76.88    410
76.9     460
76.92    521
76.94    528
76.96    527
76.98    555
77.0     523
77.02    503
77.04    485
77.06    477
77.08    489
77.1     595
77.12    677
77.14    690
77.16    805
77.18    862
77.2     888
77.22    907
77.24    954
77.26    1016
77.28    1082
77.3     1154
77.32    1256
77.34    1374
77.36    1574
77.38    1678
77.4     1986
77.42    2392
77.44    2913
77.46    3571
77.48    4248
77.5     4942
77.52    5617
77.54    6090
77.56    6282
77.58    6136
77.6     5812
77.62    5305
77.64    4618
77.66    3937
77.68    3277
77.7     2739
77.72    2325
77.74    1940
77.76    1607
77.78    1335
77.8     1167
77.82    1087
77.84    914
77.86    820
77.88    770
77.9     781
77.92    800
77.94    728
77.96    674
77.98    663
78.0     643
78.02    589
78.04    507
78.06    469
78.08    435
78.1     457
78.12    450
78.14    328
78.16    298
78.18    318
78.2     297
78.22    265
78.24    297
78.26    325
78.28    336
78.3     384
78.32    413
78.34    359
78.36    363
78.38    416
78.4     440
78.42    435
78.44    445
78.46    452
78.48    459
78.5     509
78.52    473
78.54    416
78.56    368
78.58    353
78.6     301
78.62    279
78.64    172
78.66    155
78.68    162
78.7     220
78.72    241
78.74    230
78.76    222
78.78    196
78.8     242
78.82    285
78.84    270
78.86    328
78.88    352
78.9     437
78.92    485
78.94    481
78.96    481
78.98    498
79.0     611
79.02    636
79.04    624
79.06    589
79.08    501
79.1     471
79.12    430
79.14    338
79.16    212
79.18    185
79.2     158
79.22    126
79.24    85
79.26    51
79.28    57
79.3     114
79.32    174
79.34    208
79.36    210
79.38    247
79.4     270
79.42    266
79.44    289
79.46    338
79.48    421
79.5     483
79.52    506
79.54    508
79.56    470
79.58    417
79.6     338
79.62    317
79.64    343
79.66    403
79.68    394
79.7     371
79.72    336
79.74    263
79.76    260
79.78    244
79.8     218
79.82    310
79.84    401
79.86    412
79.88    434
79.9     486
79.92    551
79.94    526
79.96    553
79.98    570
80.0     539
80.02    512
80.04    540
80.06    471
80.08    478
80.1     536
80.12    540
80.14    456
80.16    413
80.18    449
80.2     403
80.22    365
80.24    364
80.26    368
80.28    376
80.3     401
80.32    338
80.34    254
80.36    271
80.38    312
80.4     292
80.42    225
80.44    171
80.46    196
80.48    205
80.5     203
80.52    225
80.54    186
80.56    241
80.58    291
80.6     309
80.62    257
80.64    217
80.66    303
80.68    330
80.7     322
80.72    248
80.74    196
80.76    190
80.78    265
80.8     252
80.82    288
80.84    319
80.86    437
80.88    465
80.9     385
80.92    323
80.94    334
80.96    344
80.98    383
81.0     317
81.02    286
81.04    306
81.06    272
81.08    230
81.1     184
81.12    190
81.14    235
81.16    261
81.18    246
81.2     174
81.22    169
81.24    239
81.26    252
81.28    220
81.3     288
81.32    272
81.34    320
81.36    281
81.38    233
81.4     189
81.42    231
81.44    263
81.46    284
81.48    163
81.5     187
81.52    218
81.54    280
81.56    293
81.58    270
81.6     230
81.62    251
81.64    282
81.66    301
81.68    203
81.7     259
81.72    340
81.74    382
81.76    400
81.78    351
81.8     303
81.82    297
81.84    298
81.86    276
81.88    246
81.9     219
81.92    273
81.94    265
81.96    273
81.98    288
82.0     310
82.02    321
82.04    338
82.06    345
82.08    380
82.1     363
82.12    391
82.14    354
82.16    330
82.18    350
82.2     347
82.22    347
82.24    294
82.26    253
82.28    236
82.3     154
82.32    47
82.34    37
82.36    15
82.38    77
82.4     138
82.42    181
82.44    231
82.46    304
82.48    335
82.5     342
82.52    330
82.54    300
82.56    339
82.58    324
82.6     330
82.62    307
82.64    384
82.66    416
82.68    400
82.7     423
82.72    361
82.74    306
82.76    214
82.78    183
82.8     167
82.82    196
82.84    227
82.86    253
82.88    267
82.9     247
82.92    197
82.94    152
82.96    99
82.98    147
83.0     147
83.02    225
83.04    165
83.06    231
83.08    218
83.1     163
83.12    191
83.14    189
83.16    273
83.18    374
83.2     384
83.22    403
83.24    321
83.26    351
83.28    300
83.3     297
83.32    299
83.34    302
83.36    347
83.38    423
83.4     423
83.42    396
83.44    314
83.46    391
83.48    440
83.5     416
83.52    382
83.54    360
83.56    320
83.58    345
83.6     291
83.62    263
83.64    175
83.66    268
83.68    262
83.7     267
83.72    273
83.74    234
83.76    227
83.78    208
83.8     160
83.82    126
83.84    103
83.86    92
83.88    38
83.9     144
83.92    180
83.94    203
83.96    244
83.98    310
84.0     409
84.02    417
84.04    474
84.06    426
84.08    428
84.1     438
84.12    449
84.14    409
84.16    404
84.18    429
84.2     440
84.22    340
84.24    288
84.26    268
84.28    235
84.3     197
84.32    252
84.34    209
84.36    165
84.38    170
84.4     164
84.42    122
84.44    171
84.46    270
84.48    330
84.5     373
84.52    328
84.54    285
84.56    249
84.58    262
84.6     314
84.62    404
84.64    481
84.66    551
84.68    621
84.7     586
84.72    472
84.74    405
84.76    339
84.78    354
84.8     405
84.82    443
84.84    475
84.86    454
84.88    439
84.9     402
84.92    324
84.94    244
84.96    251
84.98    307
85.0     305
85.02    325
85.04    340
85.06    273
85.08    248
85.1     190
85.12    124
85.14    154
85.16    199
85.18    190
85.2     210
85.22    251
85.24    297
85.26    295
85.28    298
85.3     232
85.32    241
85.34    270
85.36    276
85.38    258
85.4     284
85.42    230
85.44    274
85.46    234
85.48    246
85.5     218
85.52    290
85.54    278
85.56    318
85.58    305
85.6     266
85.62    194
85.64    197
85.66    126
85.68    189
85.7     184
85.72    214
85.74    203
85.76    160
85.78    97
85.8     95
85.82    108
85.84    98
85.86    194
85.88    315
85.9     358
85.92    394
85.94    417
85.96    342
85.98    303
86.0     280
86.02    257
86.04    245
86.06    327
86.08    343
86.1     365
86.12    327
86.14    280
86.16    220
86.18    225
86.2     270
86.22    301
86.24    377
86.26    506
86.28    638
86.3     791
86.32    827
86.34    891
86.36    947
86.38    974
86.4     1039
86.42    1095
86.44    1118
86.46    1078
86.48    1014
86.5     974
86.52    853
86.54    726
86.56    566
86.58    448
86.6     442
86.62    475
86.64    451
86.66    424
86.68    368
86.7     353
86.72    340
86.74    314
86.76    296
86.78    287
86.8     310
86.82    377
86.84    438
86.86    461
86.88    419
86.9     388
86.92    388
86.94    332
86.96    343
86.98    351
87.0     325
87.02    326
87.04    354
87.06    348
87.08    251
87.1     186
87.12    154
87.14    138
87.16    248
87.18    312
87.2     261
87.22    267
87.24    213
87.26    200
87.28    176
87.3     180
87.32    199
87.34    260
87.36    337
87.38    352
87.4     322
87.42    335
87.44    259
87.46    259
87.48    349
87.5     397
87.52    428
87.54    431
87.56    390
87.58    291
87.6     257
87.62    239
87.64    155
87.66    58
87.68    65
87.7     68
87.72    112
87.74    140
87.76    105
87.78    103
87.8     178
87.82    196
87.84    264
87.86    305
87.88    308
87.9     340
87.92    417
87.94    480
87.96    427
87.98    392
88.0     366
88.02    348
88.04    388
88.06    414
88.08    381
88.1     401
88.12    400
88.14    417
88.16    323
88.18    221
88.2     179
88.22    225
88.24    205
88.26    250
88.28    271
88.3     332
88.32    316
88.34    302
88.36    218
88.38    222
88.4     225
88.42    252
88.44    259
88.46    343
88.48    394
88.5     383
88.52    334
88.54    269
88.56    255
88.58    248
88.6     210
88.62    133
88.64    187
88.66    175
88.68    206
88.7     140
88.72    127
88.74    107
88.76    109
88.78    76
88.8     147
88.82    193
88.84    246
88.86    235
88.88    271
88.9     299
88.92    297
88.94    300
88.96    255
88.98    250
89.0     265
89.02    231
89.04    179
89.06    158
89.08    116
89.1     143
89.12    130
89.14    132
89.16    158
89.18    113
89.2     82
89.22    52
89.24    73
89.26    84
89.28    74
89.3     110
89.32    122
89.34    178
89.36    277
89.38    216
89.4     302
89.42    342
89.44    387
89.46    393
89.48    410
89.5     448
89.52    424
89.54    453
89.56    449
89.58    373
89.6     412
89.62    384
89.64    349
89.66    377
89.68    393
89.7     403
89.72    409
89.74    398
89.76    382
89.78    332
89.8     339
89.82    256
89.84    180
89.86    183
89.88    173
89.9     218
89.92    279
89.94    280
89.96    338
89.98    331
90.0     328
