?
5.0      613
5.02     613
5.04     792
5.06     766
5.08     764
5.1      765
5.12     732
5.14     743
5.16     718
5.18     738
5.2      729
5.22     725
5.24     750
5.26     774
5.28     770
5.3      790
5.32     748
5.34     780
5.36     777
5.38     779
5.4      770
5.42     784
5.44     803
5.46     793
5.48     796
5.5      752
5.52     726
5.54     730
5.56     718
5.58     711
5.6      748
5.62     752
5.64     791
5.66     771
5.68     763
5.7      734
5.72     713
5.74     712
5.76     706
5.78     720
5.8      712
5.82     707
5.84     735
5.86     714
5.88     702
5.9      713
5.92     711
5.94     738
5.96     775
5.98     801
6.0      806
6.02     767
6.04     758
6.06     777
6.08     752
6.1      768
6.12     732
6.14     708
6.16     722
6.18     725
6.2      746
6.22     710
6.24     720
6.26     746
6.28     718
6.3      704
6.32     670
6.34     678
6.36     714
6.38     747
6.4      781
6.42     753
6.44     761
6.46     784
6.48     767
6.5      734
6.52     737
6.54     687
6.56     723
6.58     732
6.6      713
6.62     668
6.64     710
6.66     711
6.68     726
6.7      682
6.72     671
6.74     640
6.76     664
6.78     680
6.8      648
6.82     638
6.84     691
6.86     664
6.88     683
6.9      634
6.92     706
6.94     659
6.96     651
6.98     660
7.0      694
7.02     709
7.04     756
7.06     724
7.08     775
7.1      735
7.12     823
7.14     708
7.16     746
7.18     726
7.2      740
7.22     769
7.24     748
7.26     784
7.28     837
7.3      797
7.32     818
7.34     799
7.36     793
7.38     797
7.4      771
7.42     819
7.44     774
7.46     794
7.48     812
7.5      756
7.52     784
7.54     794
7.56     758
7.58     838
7.6      825
7.62     883
7.64     860
7.66     840
7.68     843
7.7      846
7.72     838
7.74     797
7.76     806
7.78     782
7.8      779
7.82     843
7.84     835
7.86     841
7.88     820
7.9      884
7.92     813
7.94     822
7.96     820
7.98     741
8.0      805
8.02     804
8.04     814
8.06     841
8.08     811
8.1      818
8.12     768
8.14     762
8.16     714
8.18     715
8.2      699
8.22     715
8.24     799
8.26     834
8.28     868
8.3      883
8.32     910
8.34     905
8.36     865
8.38     852
8.4      803
8.42     829
8.44     774
8.46     751
8.48     737
8.5      747
8.52     752
8.54     743
8.56     758
8.58     768
8.6      822
8.62     892
8.64     832
8.66     856
8.68     857
8.7      824
8.72     780
8.74     749
8.76     720
8.78     689
8.8      740
8.82     798
8.84     770
8.86     825
8.88     836
8.9      831
8.92     849
8.94     852
8.96     830
8.98     812
9.0      841
9.02     819
9.04     771
9.06     796
9.08     763
9.1      789
9.12     782
9.14     752
9.16     740
9.18     712
9.2      677
9.22     646
9.24     605
9.26     699
9.28     697
9.3      727
9.32     749
9.34     734
9.36     717
9.38     732
9.4      655
9.42     669
9.44     619
9.46     644
9.48     628
9.5      631
9.52     656
9.54     668
9.56     712
9.58     729
9.6      679
9.62     748
9.64     710
9.66     720
9.68     769
9.7      735
9.72     739
9.74     776
9.76     740
9.78     702
9.8      690
9.82     672
9.84     652
9.86     684
9.88     666
9.9      617
9.92     663
9.94     671
9.96     676
9.98     702
10.0     677
10.02    644
10.04    699
10.06    706
10.08    647
10.1     605
10.12    631
10.14    633
10.16    708
10.18    648
10.2     582
10.22    599
10.24    612
10.26    574
10.28    587
10.3     529
10.32    580
10.34    566
10.36    564
10.38    527
10.4     539
10.42    610
10.44    576
10.46    596
10.48    664
10.5     642
10.52    631
10.54    610
10.56    569
10.58    606
10.6     593
10.62    610
10.64    552
10.66    592
10.68    640
10.7     642
10.72    635
10.74    633
10.76    601
10.78    606
10.8     560
10.82    580
10.84    588
10.86    599
10.88    637
10.9     644
10.92    605
10.94    591
10.96    620
10.98    649
11.0     638
11.02    660
11.04    660
11.06    596
11.08    620
11.1     567
11.12    495
11.14    507
11.16    545
11.18    555
11.2     590
11.22    604
11.24    609
11.26    632
11.28    647
11.3     645
11.32    645
11.34    650
11.36    709
11.38    710
11.4     732
11.42    657
11.44    625
11.46    586
11.48    542
11.5     601
11.52    603
11.54    590
11.56    651
11.58    685
11.6     748
11.62    688
11.64    733
11.66    688
11.68    676
11.7     739
11.72    744
11.74    690
11.76    704
11.78    730
11.8     764
11.82    717
11.84    702
11.86    632
11.88    623
11.9     591
11.92    570
11.94    568
11.96    579
11.98    550
12.0     594
12.02    612
12.04    599
12.06    624
12.08    628
12.1     629
12.12    640
12.14    648
12.16    640
12.18    600
12.2     605
12.22    670
12.24    675
12.26    669
12.28    673
12.3     735
12.32    732
12.34    727
12.36    767
12.38    693
12.4     627
12.42    662
12.44    610
12.46    534
12.48    534
12.5     582
12.52    619
12.54    670
12.56    721
12.58    672
12.6     632
12.62    689
12.64    687
12.66    641
12.68    658
12.7     642
12.72    659
12.74    660
12.76    677
12.78    638
12.8     634
12.82    713
12.84    689
12.86    672
12.88    665
12.9     624
12.92    653
12.94    582
12.96    560
12.98    532
13.0     560
13.02    587
13.04    601
13.06    657
13.08    728
13.1     809
13.12    837
13.14    789
13.16    793
13.18    768
13.2     772
13.22    731
13.24    671
13.26    650
13.28    631
13.3     599
13.32    572
13.34    570
13.36    563
13.38    587
13.4     654
13.42    670
13.44    669
13.46    709
13.48    702
13.5     673
13.52    709
13.54    698
13.56    683
13.58    715
13.6     745
13.62    753
13.64    797
13.66    825
13.68    817
13.7     816
13.72    778
13.74    771
13.76    775
13.78    759
13.8     766
13.82    735
13.84    726
13.86    744
13.88    760
13.9     753
13.92    733
13.94    768
13.96    815
13.98    834
14.0     825
14.02    799
14.04    797
14.06    844
14.08    844
14.1     829
14.12    835
14.14    812
14.16    842
14.18    795
14.2     750
14.22    807
14.24    806
14.26    761
14.28    772
14.3     807
14.32    780
14.34    741
14.36    749
14.38    700
14.4     672
14.42    750
14.44    743
14.46    724
14.48    767
14.5     826
14.52    834
14.54    857
14.56    893
14.58    862
14.6     833
14.62    890
14.64    870
14.66    817
14.68    844
14.7     890
14.72    836
14.74    797
14.76    864
14.78    874
14.8     850
14.82    908
14.84    905
14.86    880
14.88    953
14.9     993
14.92    940
14.94    974
14.96    1089
14.98    1023
15.0     946
15.02    989
15.04    946
15.06    852
15.08    853
15.1     865
15.12    840
15.14    841
15.16    853
15.18    831
15.2     873
15.22    910
15.24    925
15.26    878
15.28    874
15.3     855
15.32    805
15.34    764
15.36    818
15.38    891
15.4     882
15.42    879
15.44    929
15.46    916
15.48    924
15.5     886
15.52    847
15.54    886
15.56    917
15.58    878
15.6     835
15.62    879
15.64    901
15.66    929
15.68    952
15.7     955
15.72    960
15.74    1021
15.76    1023
15.78    1008
15.8     1020
15.82    1056
15.84    1060
15.86    1124
15.88    1161
15.9     1265
15.92    1342
15.94    1431
15.96    1482
15.98    1488
16.0     1533
16.02    1555
16.04    1604
16.06    1681
16.08    1779
16.1     1917
16.12    1979
16.14    2096
16.16    2191
16.18    2353
16.2     2612
16.22    2834
16.24    3127
16.26    3503
16.28    3980
16.3     4544
16.32    5204
16.34    5972
16.36    6944
16.38    8320
16.4     9976
16.42    11916
16.44    14399
16.46    17731
16.48    22239
16.5     28167
16.52    35393
16.54    42820
16.56    48532
16.58    50959
16.6     49211
16.62    43739
16.64    35577
16.66    26178
16.68    17190
16.7     10234
16.72    6170
16.74    4398
16.76    3681
16.78    3230
16.8     2805
16.82    2600
16.84    2459
16.86    2251
16.88    1968
16.9     1781
16.92    1679
16.94    1569
16.96    1515
16.98    1362
17.0     1288
17.02    1267
17.04    1266
17.06    1214
17.08    1190
17.1     1216
17.12    1202
17.14    1183
17.16    1230
17.18    1254
17.2     1268
17.22    1217
17.24    1156
17.26    1121
17.28    1072
17.3     1005
17.32    925
17.34    909
17.36    967
17.38    1027
17.4     1078
17.42    1093
17.44    1043
17.46    1010
17.48    950
17.5     878
17.52    893
17.54    912
17.56    883
17.58    875
17.6     905
17.62    922
17.64    898
17.66    826
17.68    761
17.7     693
17.72    736
17.74    778
17.76    771
17.78    799
17.8     802
17.82    865
17.84    930
17.86    875
17.88    856
17.9     838
17.92    866
17.94    887
17.96    843
17.98    820
18.0     732
18.02    723
18.04    672
18.06    662
18.08    698
18.1     727
18.12    728
18.14    768
18.16    786
18.18    806
18.2     741
18.22    676
18.24    663
18.26    717
18.28    676
18.3     662
18.32    632
18.34    647
18.36    641
18.38    631
18.4     599
18.42    569
18.44    639
18.46    642
18.48    632
18.5     662
18.52    683
18.54    642
18.56    629
18.58    654
18.6     688
18.62    716
18.64    728
18.66    676
18.68    687
18.7     689
18.72    668
18.74    625
18.76    628
18.78    643
18.8     692
18.82    744
18.84    742
18.86    663
18.88    599
18.9     595
18.92    589
18.94    606
18.96    574
18.98    605
19.0     661
19.02    724
19.04    753
19.06    670
19.08    658
19.1     691
19.12    650
19.14    651
19.16    596
19.18    579
19.2     569
19.22    561
19.24    596
19.26    587
19.28    594
19.3     558
19.32    488
19.34    544
19.36    571
19.38    550
19.4     603
19.42    630
19.44    664
19.46    649
19.48    560
19.5     542
19.52    542
19.54    565
19.56    577
19.58    531
19.6     596
19.62    613
19.64    618
19.66    586
19.68    500
19.7     513
19.72    538
19.74    521
19.76    537
19.78    525
19.8     579
19.82    569
19.84    545
19.86    489
19.88    432
19.9     445
19.92    432
19.94    484
19.96    552
19.98    533
20.0     570
20.02    565
20.04    642
20.06    688
20.08    635
20.1     545
20.12    460
20.14    458
20.16    419
20.18    412
20.2     461
20.22    546
20.24    613
20.26    614
20.28    507
20.3     467
20.32    489
20.34    528
20.36    501
20.38    526
20.4     556
20.42    623
20.44    645
20.46    611
20.48    518
20.5     513
20.52    505
20.54    534
20.56    521
20.58    547
20.6     592
20.62    579
20.64    554
20.66    463
20.68    407
20.7     434
20.72    446
20.74    473
20.76    548
20.78    590
20.8     584
20.82    553
20.84    520
20.86    508
20.88    500
20.9     473
20.92    445
20.94    385
20.96    375
20.98    388
21.0     426
21.02    507
21.04    517
21.06    507
21.08    513
21.1     493
21.12    493
21.14    457
21.16    451
21.18    497
21.2     558
21.22    538
21.24    475
21.26    436
21.28    498
21.3     542
21.32    541
21.34    542
21.36    548
21.38    524
21.4     509
21.42    465
21.44    414
21.46    402
21.48    431
21.5     442
21.52    400
21.54    414
21.56    357
21.58    327
21.6     354
21.62    396
21.64    412
21.66    380
21.68    296
21.7     331
21.72    361
21.74    424
21.76    358
21.78    349
21.8     385
21.82    442
21.84    452
21.86    343
21.88    290
21.9     332
21.92    390
21.94    390
21.96    359
21.98    313
22.0     346
22.02    398
22.04    458
22.06    494
22.08    499
22.1     501
22.12    514
22.14    472
22.16    424
22.18    332
22.2     320
22.22    334
22.24    419
22.26    471
22.28    476
22.3     481
22.32    501
22.34    512
22.36    454
22.38    419
22.4     391
22.42    404
22.44    393
22.46    388
22.48    371
22.5     349
22.52    356
22.54    421
22.56    410
22.58    447
22.6     463
22.62    482
22.64    462
22.66    472
22.68    440
22.7     410
22.72    365
22.74    394
22.76    335
22.78    335
22.8     314
22.82    352
22.84    426
22.86    449
22.88    423
22.9     384
22.92    416
22.94    445
22.96    395
22.98    399
23.0     394
23.02    454
23.04    478
23.06    430
23.08    348
23.1     329
23.12    347
23.14    381
23.16    359
23.18    365
23.2     319
23.22    283
23.24    297
23.26    318
23.28    371
23.3     356
23.32    339
23.34    397
23.36    411
23.38    436
23.4     434
23.42    421
23.44    392
23.46    429
23.48    470
23.5     468
23.52    468
23.54    452
23.56    383
23.58    336
23.6     295
23.62    215
23.64    148
23.66    236
23.68    285
23.7     417
23.72    426
23.74    436
23.76    397
23.78    388
23.8     427
23.82    404
23.84    410
23.86    428
23.88    386
23.9     388
23.92    318
23.94    273
23.96    200
23.98    227
24.0     306
24.02    305
24.04    282
24.06    303
24.08    269
24.1     257
24.12    263
24.14    267
24.16    265
24.18    294
24.2     361
24.22    436
24.24    441
24.26    452
24.28    350
24.3     301
24.32    309
24.34    247
24.36    206
24.38    189
24.4     255
24.42    327
24.44    360
24.46    402
24.48    433
24.5     433
24.52    398
24.54    328
24.56    308
24.58    317
24.6     296
24.62    219
24.64    188
24.66    162
24.68    230
24.7     224
24.72    246
24.74    262
24.76    297
24.78    354
24.8     368
24.82    346
24.84    391
24.86    406
24.88    447
24.9     432
24.92    381
24.94    260
24.96    235
24.98    230
25.0     233
25.02    251
25.04    351
25.06    396
25.08    426
25.1     369
25.12    310
25.14    239
25.16    279
25.18    326
25.2     327
25.22    351
25.24    414
25.26    432
25.28    430
25.3     324
25.32    306
25.34    271
25.36    230
25.38    265
25.4     257
25.42    309
25.44    314
25.46    295
25.48    330
25.5     313
25.52    317
25.54    297
25.56    238
25.58    289
25.6     291
25.62    299
25.64    290
25.66    284
25.68    350
25.7     314
25.72    276
25.74    290
25.76    205
25.78    209
25.8     191
25.82    261
25.84    284
25.86    337
25.88    355
25.9     318
25.92    277
25.94    276
25.96    210
25.98    228
26.0     268
26.02    298
26.04    279
26.06    337
26.08    362
26.1     376
26.12    335
26.14    358
26.16    277
26.18    267
26.2     283
26.22    214
26.24    220
26.26    277
26.28    373
26.3     341
26.32    297
26.34    246
26.36    200
26.38    252
26.4     243
26.42    227
26.44    215
26.46    288
26.48    336
26.5     293
26.52    292
26.54    316
26.56    411
26.58    394
26.6     367
26.62    364
26.64    341
26.66    391
26.68    402
26.7     360
26.72    301
26.74    286
26.76    270
26.78    197
26.8     215
26.82    201
26.84    241
26.86    280
26.88    315
26.9     284
26.92    234
26.94    184
26.96    141
26.98    123
27.0     90
27.02    58
27.04    135
27.06    215
27.08    326
27.1     368
27.12    330
27.14    284
27.16    181
27.18    167
27.2     107
27.22    67
27.24    104
27.26    181
27.28    246
27.3     248
27.32    244
27.34    250
27.36    200
27.38    271
27.4     271
27.42    213
27.44    238
27.46    235
27.48    196
27.5     168
27.52    164
27.54    176
27.56    156
27.58    178
27.6     173
27.62    197
27.64    229
27.66    236
27.68    251
27.7     267
27.72    292
27.74    318
27.76    290
27.78    265
27.8     234
27.82    230
27.84    203
27.86    154
27.88    161
27.9     184
27.92    162
27.94    209
27.96    256
27.98    320
28.0     353
28.02    345
28.04    377
28.06    326
28.08    353
28.1     341
28.12    250
28.14    327
28.16    356
28.18    364
28.2     332
28.22    255
28.24    290
28.26    237
28.28    262
28.3     252
28.32    198
28.34    265
28.36    270
28.38    241
28.4     235
28.42    162
28.44    190
28.46    224
28.48    284
28.5     299
28.52    298
28.54    305
28.56    308
28.58    298
28.6     301
28.62    283
28.64    308
28.66    378
28.68    398
28.7     394
28.72    388
28.74    323
28.76    313
28.78    327
28.8     335
28.82    344
28.84    309
28.86    310
28.88    287
28.9     260
28.92    247
28.94    178
28.96    169
28.98    209
29.0     220
29.02    208
29.04    184
29.06    206
29.08    219
29.1     216
29.12    235
29.14    232
29.16    252
29.18    272
29.2     285
29.22    300
29.24    265
29.26    292
29.28    263
29.3     255
29.32    314
29.34    315
29.36    287
29.38    218
29.4     169
29.42    179
29.44    131
29.46    175
29.48    184
29.5     219
29.52    274
29.54    268
29.56    270
29.58    273
29.6     246
29.62    272
29.64    227
29.66    241
29.68    266
29.7     230
29.72    260
29.74    280
29.76    263
29.78    235
29.8     160
29.82    125
29.84    116
29.86    154
29.88    235
29.9     249
29.92    305
29.94    339
29.96    350
29.98    354
30.0     337
30.02    277
30.04    288
30.06    273
30.08    275
30.1     251
30.12    253
30.14    294
30.16    361
30.18    388
30.2     371
30.22    329
30.24    344
30.26    362
30.28    361
30.3     315
30.32    286
30.34    238
30.36    216
30.38    224
30.4     195
30.42    238
30.44    295
30.46    318
30.48    330
30.5     280
30.52    271
30.54    234
30.56    287
30.58    305
30.6     252
30.62    275
30.64    243
30.66    159
30.68    182
30.7     156
30.72    166
30.74    239
30.76    358
30.78    354
30.8     364
30.82    341
30.84    254
30.86    253
30.88    290
30.9     280
30.92    311
30.94    353
30.96    348
30.98    340
31.0     318
31.02    252
31.04    222
31.06    227
31.08    253
31.1     240
31.12    290
31.14    318
31.16    325
31.18    423
31.2     395
31.22    347
31.24    305
31.26    198
31.28    192
31.3     173
31.32    235
31.34    326
31.36    337
31.38    416
31.4     362
31.42    303
31.44    292
31.46    258
31.48    281
31.5     302
31.52    264
31.54    267
31.56    225
31.58    240
31.6     272
31.62    344
31.64    373
31.66    387
31.68    337
31.7     251
31.72    170
31.74    154
31.76    154
31.78    220
31.8     239
31.82    283
31.84    256
31.86    253
31.88    263
31.9     262
31.92    311
31.94    364
31.96    409
31.98    396
32.0     281
32.02    261
32.04    212
32.06    176
32.08    225
32.1     230
32.12    276
32.14    361
32.16    406
32.18    400
32.2     378
32.22    351
32.24    338
32.26    310
32.28    305
32.3     309
32.32    312
32.34    321
32.36    348
32.38    382
32.4     360
32.42    341
32.44    420
32.46    401
32.48    375
32.5     317
32.52    255
32.54    189
32.56    210
32.58    231
32.6     239
32.62    265
32.64    345
32.66    338
32.68    331
32.7     346
32.72    437
32.74    445
32.76    454
32.78    476
32.8     433
32.82    381
32.84    311
32.86    240
32.88    198
32.9     269
32.92    381
32.94    410
32.96    434
32.98    517
33.0     520
33.02    519
33.04    479
33.06    430
33.08    383
33.1     391
33.12    444
33.14    487
33.16    511
33.18    538
33.2     510
33.22    547
33.24    598
33.26    599
33.28    710
33.3     818
33.32    950
33.34    1081
33.36    1198
33.38    1337
33.4     1506
33.42    1929
33.44    2464
33.46    3291
33.48    4546
33.5     6162
33.52    8135
33.54    10180
33.56    11745
33.58    12427
33.6     12117
33.62    10942
33.64    9029
33.66    6832
33.68    4744
33.7     3127
33.72    2163
33.74    1636
33.76    1346
33.78    1129
33.8     962
33.82    890
33.84    820
33.86    749
33.88    722
33.9     671
33.92    671
33.94    646
33.96    640
33.98    620
34.0     596
34.02    603
34.04    565
34.06    533
34.08    498
34.1     441
34.12    472
34.14    474
34.16    426
34.18    477
34.2     510
34.22    437
34.24    448
34.26    461
34.28    438
34.3     465
34.32    528
34.34    483
34.36    499
34.38    518
34.4     495
34.42    364
34.44    331
34.46    285
34.48    261
34.5     354
34.52    444
34.54    480
34.56    516
34.58    479
34.6     415
34.62    350
34.64    353
34.66    357
34.68    430
34.7     586
34.72    609
34.74    587
34.76    512
34.78    390
34.8     321
34.82    359
34.84    454
34.86    558
34.88    749
34.9     1007
34.92    1175
34.94    1342
34.96    1614
34.98    2055
35.0     2909
35.02    4361
35.04    6456
35.06    8781
35.08    10775
35.1     11881
35.12    11977
35.14    11055
35.16    9269
35.18    6980
35.2     4701
35.22    2944
35.24    1863
35.26    1220
35.28    910
35.3     683
35.32    675
35.34    739
35.36    733
35.38    734
35.4     717
35.42    655
35.44    528
35.46    482
35.48    504
35.5     531
35.52    564
35.54    599
35.56    581
35.58    546
35.6     547
35.62    541
35.64    547
35.66    583
35.68    533
35.7     524
35.72    537
35.74    569
35.76    517
35.78    472
35.8     466
35.82    413
35.84    402
35.86    392
35.88    438
35.9     542
35.92    675
35.94    711
35.96    689
35.98    660
36.0     590
36.02    503
36.04    505
36.06    481
36.08    559
36.1     658
36.12    741
36.14    828
36.16    923
36.18    1057
36.2     1138
36.22    1276
36.24    1458
36.26    1710
36.28    2161
36.3     2769
36.32    3671
36.34    4962
36.36    6905
36.38    9973
36.4     14101
36.42    18826
36.44    23002
36.46    25644
36.48    26161
36.5     24570
36.52    21077
36.54    16261
36.56    11305
36.58    7229
36.6     4494
36.62    3001
36.64    2196
36.66    1704
36.68    1385
36.7     1278
36.72    1137
36.74    1047
36.76    948
36.78    892
36.8     840
36.82    835
36.84    786
36.86    789
36.88    798
36.9     847
36.92    804
36.94    796
36.96    672
36.98    551
37.0     488
37.02    417
37.04    297
37.06    295
37.08    369
37.1     488
37.12    553
37.14    590
37.16    621
37.18    598
37.2     616
37.22    562
37.24    534
37.26    577
37.28    651
37.3     763
37.32    869
37.34    902
37.36    940
37.38    928
37.4     866
37.42    729
37.44    637
37.46    559
37.48    432
37.5     400
37.52    407
37.54    389
37.56    396
37.58    427
37.6     449
37.62    438
37.64    459
37.66    427
37.68    359
37.7     308
37.72    301
37.74    350
37.76    448
37.78    490
37.8     536
37.82    584
37.84    525
37.86    426
37.88    376
37.9     333
37.92    352
37.94    463
37.96    564
37.98    523
38.0     531
38.02    511
38.04    306
38.06    192
38.08    212
38.1     235
38.12    304
38.14    494
38.16    509
38.18    489
38.2     504
38.22    389
38.24    239
38.26    242
38.28    308
38.3     380
38.32    450
38.34    560
38.36    542
38.38    537
38.4     404
38.42    258
38.44    178
38.46    212
38.48    242
38.5     346
38.52    389
38.54    425
38.56    419
38.58    413
38.6     279
38.62    193
38.64    166
38.66    235
38.68    301
38.7     407
38.72    469
38.74    463
38.76    468
38.78    450
38.8     363
38.82    252
38.84    298
38.86    340
38.88    432
38.9     463
38.92    572
38.94    564
38.96    542
38.98    415
39.0     340
39.02    215
39.04    225
39.06    229
39.08    314
39.1     395
39.12    485
39.14    441
39.16    424
39.18    346
39.2     279
39.22    209
39.24    183
39.26    203
39.28    307
39.3     431
39.32    467
39.34    503
39.36    522
39.38    460
39.4     364
39.42    317
39.44    229
39.46    193
39.48    271
39.5     371
39.52    403
39.54    442
39.56    403
39.58    339
39.6     258
39.62    306
39.64    308
39.66    362
39.68    465
39.7     569
39.72    523
39.74    456
39.76    423
39.78    386
39.8     272
39.82    306
39.84    340
39.86    361
39.88    383
39.9     482
39.92    453
39.94    421
39.96    493
39.98    498
40.0     453
40.02    541
40.04    628
40.06    678
40.08    770
40.1     866
40.12    763
40.14    674
40.16    658
40.18    594
40.2     515
40.22    534
40.24    550
40.26    576
40.28    670
40.3     723
40.32    681
40.34    728
40.36    800
40.38    796
40.4     762
40.42    764
40.44    715
40.46    677
40.48    694
40.5     675
40.52    631
40.54    662
40.56    695
40.58    766
40.6     779
40.62    778
40.64    797
40.66    786
40.68    793
40.7     783
40.72    811
40.74    850
40.76    911
40.78    1027
40.8     1043
40.82    1071
40.84    1083
40.86    1021
40.88    995
40.9     1000
40.92    993
40.94    981
40.96    1088
40.98    1227
41.0     1319
41.02    1455
41.04    1544
41.06    1633
41.08    1696
41.1     1728
41.12    1744
41.14    1758
41.16    1897
41.18    2085
41.2     2336
41.22    2713
41.24    3203
41.26    3786
41.28    4415
41.3     5213
41.32    6211
41.34    7444
41.36    9211
41.38    11692
41.4     15325
41.42    20800
41.44    29159
41.46    41132
41.48    56443
41.5     71936
41.52    84259
41.54    90424
41.56    89350
41.58    81215
41.6     67766
41.62    51588
41.64    36105
41.66    24098
41.68    16495
41.7     11845
41.72    9029
41.74    6982
41.76    5493
41.78    4501
41.8     3921
41.82    3540
41.84    3298
41.86    3075
41.88    2699
41.9     2408
41.92    2119
41.94    1900
41.96    1633
41.98    1596
42.0     1560
42.02    1498
42.04    1434
42.06    1388
42.08    1222
42.1     1139
42.12    1137
42.14    1117
42.16    1082
42.18    1099
42.2     1050
42.22    967
42.24    913
42.26    870
42.28    802
42.3     764
42.32    875
42.34    914
42.36    1004
42.38    958
42.4     939
42.42    898
42.44    821
42.46    757
42.48    714
42.5     682
42.52    728
42.54    761
42.56    819
42.58    767
42.6     737
42.62    723
42.64    638
42.66    602
42.68    576
42.7     604
42.72    640
42.74    673
42.76    761
42.78    824
42.8     863
42.82    938
42.84    926
42.86    893
42.88    857
42.9     811
42.92    714
42.94    605
42.96    504
42.98    427
43.0     421
43.02    479
43.04    581
43.06    695
43.08    862
43.1     907
43.12    953
43.14    881
43.16    737
43.18    648
43.2     593
43.22    583
43.24    599
43.26    636
43.28    710
43.3     678
43.32    678
43.34    562
43.36    544
43.38    477
43.4     473
43.42    510
43.44    479
43.46    527
43.48    583
43.5     592
43.52    576
43.54    523
43.56    569
43.58    513
43.6     564
43.62    578
43.64    554
43.66    571
43.68    549
43.7     510
43.72    467
43.74    423
43.76    448
43.78    473
43.8     538
43.82    568
43.84    624
43.86    701
43.88    670
43.9     634
43.92    525
43.94    442
43.96    407
43.98    320
44.0     280
44.02    304
44.04    420
44.06    553
44.08    557
44.1     632
44.12    669
44.14    689
44.16    704
44.18    622
44.2     613
44.22    585
44.24    530
44.26    463
44.28    385
44.3     363
44.32    403
44.34    424
44.36    499
44.38    564
44.4     621
44.42    590
44.44    531
44.46    425
44.48    365
44.5     317
44.52    343
44.54    384
44.56    452
44.58    548
44.6     577
44.62    587
44.64    577
44.66    515
44.68    500
44.7     476
44.72    504
44.74    498
44.76    501
44.78    536
44.8     585
44.82    631
44.84    681
44.86    801
44.88    864
44.9     951
44.92    1082
44.94    1144
44.96    1263
44.98    1469
45.0     1644
45.02    1719
45.04    1749
45.06    1792
45.08    1705
45.1     1525
45.12    1378
45.14    1175
45.16    1031
45.18    895
45.2     780
45.22    655
45.24    541
45.26    476
45.28    452
45.3     432
45.32    468
45.34    445
45.36    482
45.38    489
45.4     517
45.42    508
45.44    460
45.46    447
45.48    486
45.5     503
45.52    470
45.54    443
45.56    482
45.58    502
45.6     491
45.62    497
45.64    534
45.66    577
45.68    589
45.7     571
45.72    502
45.74    440
45.76    353
45.78    335
45.8     308
45.82    298
45.84    317
45.86    340
45.88    345
45.9     380
45.92    357
45.94    400
45.96    412
45.98    485
46.0     537
46.02    496
46.04    466
46.06    450
46.08    430
46.1     472
46.12    421
46.14    435
46.16    434
46.18    413
46.2     447
46.22    415
46.24    425
46.26    400
46.28    448
46.3     474
46.32    383
46.34    395
46.36    428
46.38    431
46.4     498
46.42    535
46.44    570
46.46    582
46.48    564
46.5     462
46.52    356
46.54    321
46.56    320
46.58    278
46.6     316
46.62    356
46.64    385
46.66    504
46.68    535
46.7     535
46.72    505
46.74    541
46.76    531
46.78    441
46.8     412
46.82    343
46.84    348
46.86    391
46.88    370
46.9     348
46.92    345
46.94    452
46.96    415
46.98    441
47.0     427
47.02    473
47.04    507
47.06    434
47.08    375
47.1     327
47.12    402
47.14    425
47.16    441
47.18    475
47.2     525
47.22    591
47.24    527
47.26    429
47.28    427
47.3     407
47.32    436
47.34    383
47.36    401
47.38    376
47.4     434
47.42    399
47.44    359
47.46    357
47.48    417
47.5     463
47.52    482
47.54    557
47.56    578
47.58    610
47.6     561
47.62    468
47.64    414
47.66    420
47.68    449
47.7     512
47.72    544
47.74    615
47.76    587
47.78    553
47.8     431
47.82    342
47.84    340
47.86    333
47.88    382
47.9     458
47.92    545
47.94    562
47.96    547
47.98    531
48.0     518
48.02    468
48.04    435
48.06    445
48.08    502
48.1     511
48.12    515
48.14    427
48.16    458
48.18    469
48.2     397
48.22    335
48.24    319
48.26    433
48.28    449
48.3     435
48.32    460
48.34    470
48.36    522
48.38    486
48.4     423
48.42    410
48.44    439
48.46    476
48.48    483
48.5     473
48.52    469
48.54    483
48.56    457
48.58    369
48.6     319
48.62    374
48.64    430
48.66    396
48.68    429
48.7     432
48.72    475
48.74    481
48.76    474
48.78    425
48.8     433
48.82    509
48.84    500
48.86    484
48.88    499
48.9     494
48.92    430
48.94    400
48.96    327
48.98    299
49.0     283
49.02    347
49.04    455
49.06    517
49.08    506
49.1     543
49.12    513
49.14    512
49.16    422
49.18    356
49.2     334
49.22    378
49.24    380
49.26    341
49.28    345
49.3     445
49.32    501
49.34    526
49.36    556
49.38    569
49.4     592
49.42    529
49.44    402
49.46    346
49.48    312
49.5     299
49.52    278
49.54    268
49.56    352
49.58    446
49.6     429
49.62    426
49.64    425
49.66    467
49.68    500
49.7     440
49.72    399
49.74    402
49.76    385
49.78    380
49.8     362
49.82    360
49.84    381
49.86    402
49.88    386
49.9     336
49.92    326
49.94    299
49.96    248
49.98    315
50.0     368
50.02    388
50.04    435
50.06    472
50.08    453
50.1     434
50.12    383
50.14    312
50.16    293
50.18    278
50.2     254
50.22    296
50.24    311
50.26    406
50.28    420
50.3     421
50.32    502
50.34    546
50.36    536
50.38    484
50.4     414
50.42    437
50.44    360
50.46    301
50.48    196
50.5     176
50.52    239
50.54    268
50.56    247
50.58    295
50.6     342
50.62    466
50.64    418
50.66    401
50.68    365
50.7     369
50.72    356
50.74    375
50.76    419
50.78    459
50.8     499
50.82    589
50.84    486
50.86    469
50.88    396
50.9     309
50.92    313
50.94    297
50.96    311
50.98    306
51.0     412
51.02    460
51.04    429
51.06    431
51.08    396
51.1     403
51.12    412
51.14    295
51.16    278
51.18    282
51.2     323
51.22    348
51.24    346
51.26    352
51.28    390
51.3     491
51.32    566
51.34    598
51.36    688
51.38    727
51.4     775
51.42    755
51.44    651
51.46    553
51.48    407
51.5     298
51.52    235
51.54    120
51.56    123
51.58    152
51.6     288
51.62    365
51.64    487
51.66    568
51.68    617
51.7     667
51.72    675
51.74    570
51.76    512
51.78    408
51.8     373
51.82    279
51.84    245
51.86    241
51.88    328
51.9     400
51.92    517
51.94    514
51.96    546
51.98    508
52.0     491
52.02    383
52.04    378
52.06    383
52.08    474
52.1     478
52.12    582
52.14    586
52.16    612
52.18    599
52.2     585
52.22    498
52.24    541
52.26    553
52.28    576
52.3     583
52.32    582
52.34    591
52.36    574
52.38    550
52.4     496
52.42    471
52.44    437
52.46    445
52.48    413
52.5     469
52.52    464
52.54    502
52.56    494
52.58    492
52.6     534
52.62    571
52.64    511
52.66    500
52.68    465
52.7     468
52.72    445
52.74    390
52.76    323
52.78    333
52.8     379
52.82    411
52.84    469
52.86    502
52.88    562
52.9     655
52.92    666
52.94    670
52.96    670
52.98    680
53.0     678
53.02    663
53.04    637
53.06    605
53.08    610
53.1     634
53.12    610
53.14    694
53.16    760
53.18    843
53.2     931
53.22    1006
53.24    1096
53.26    1184
53.28    1324
53.3     1491
53.32    1841
53.34    2268
53.36    2847
53.38    3675
53.4     4746
53.42    5911
53.44    6976
53.46    7597
53.48    7855
53.5     7554
53.52    6899
53.54    5815
53.56    4690
53.58    3618
53.6     2802
53.62    2212
53.64    1814
53.66    1439
53.68    1197
53.7     985
53.72    878
53.74    798
53.76    806
53.78    779
53.8     751
53.82    805
53.84    837
53.86    822
53.88    812
53.9     761
53.92    672
53.94    630
53.96    581
53.98    526
54.0     492
54.02    489
54.04    485
54.06    469
54.08    477
54.1     474
54.12    424
54.14    429
54.16    485
54.18    516
54.2     529
54.22    464
54.24    403
54.26    315
54.28    345
54.3     331
54.32    334
54.34    351
54.36    439
54.38    516
54.4     566
54.42    568
54.44    583
54.46    563
54.48    612
54.5     579
54.52    560
54.54    463
54.56    392
54.58    390
54.6     350
54.62    317
54.64    311
54.66    333
54.68    343
54.7     366
54.72    327
54.74    315
54.76    313
54.78    405
54.8     430
54.82    466
54.84    544
54.86    624
54.88    651
54.9     680
54.92    576
54.94    549
54.96    466
54.98    458
55.0     390
55.02    322
55.04    294
55.06    299
55.08    340
55.1     420
55.12    396
55.14    448
55.16    481
55.18    560
55.2     593
55.22    539
55.24    468
55.26    449
55.28    395
55.3     371
55.32    287
55.34    298
55.36    349
55.38    431
55.4     450
55.42    432
55.44    471
55.46    463
55.48    424
55.5     461
55.52    520
55.54    553
55.56    661
55.58    732
55.6     730
55.62    718
55.64    656
55.66    532
55.68    471
55.7     432
55.72    376
55.74    290
55.76    299
55.78    311
55.8     379
55.82    371
55.84    321
55.86    330
55.88    357
55.9     327
55.92    354
55.94    368
55.96    386
55.98    472
56.0     522
56.02    528
56.04    527
56.06    536
56.08    509
56.1     461
56.12    435
56.14    418
56.16    456
56.18    435
56.2     417
56.22    493
56.24    555
56.26    587
56.28    594
56.3     558
56.32    539
56.34    594
56.36    554
56.38    452
56.4     383
56.42    383
56.44    361
56.46    377
56.48    412
56.5     389
56.52    474
56.54    532
56.56    468
56.58    478
56.6     444
56.62    454
56.64    427
56.66    458
56.68    434
56.7     380
56.72    421
56.74    427
56.76    418
56.78    454
56.8     441
56.82    427
56.84    457
56.86    503
56.88    473
56.9     481
56.92    491
56.94    480
56.96    504
56.98    499
57.0     455
57.02    422
57.04    465
57.06    485
57.08    496
57.1     534
57.12    549
57.14    523
57.16    537
57.18    507
57.2     447
57.22    452
57.24    424
57.26    404
57.28    420
57.3     480
57.32    528
57.34    513
57.36    573
57.38    571
57.4     591
57.42    580
57.44    549
57.46    467
57.48    415
57.5     420
57.52    373
57.54    401
57.56    448
57.58    456
57.6     548
57.62    585
57.64    694
57.66    720
57.68    801
57.7     778
57.72    763
57.74    790
57.76    737
57.78    710
57.8     770
57.82    793
57.84    848
57.86    929
57.88    1022
57.9     1015
57.92    1125
57.94    1209
57.96    1320
57.98    1493
58.0     1696
58.02    1879
58.04    2072
58.06    2334
58.08    2633
58.1     3012
58.12    3546
58.14    4255
58.16    5352
58.18    6782
58.2     8751
58.22    11194
58.24    13821
58.26    16195
58.28    17833
58.3     18414
58.32    17806
58.34    16179
58.36    13804
58.38    11053
58.4     8520
58.42    6515
58.44    5039
58.46    3982
58.48    3283
58.5     2766
58.52    2461
58.54    2261
58.56    2095
58.58    1851
58.6     1694
58.62    1539
58.64    1363
58.66    1168
58.68    1046
58.7     938
58.72    851
58.74    807
58.76    734
58.78    661
58.8     679
58.82    638
58.84    703
58.86    732
58.88    821
58.9     816
58.92    821
58.94    809
58.96    716
58.98    650
59.0     524
59.02    388
59.04    421
59.06    444
59.08    461
59.1     442
59.12    521
59.14    593
59.16    624
59.18    676
59.2     640
59.22    608
59.24    688
59.26    666
59.28    561
59.3     482
59.32    425
59.34    313
59.36    254
59.38    279
59.4     236
59.42    317
59.44    406
59.46    474
59.48    518
59.5     611
59.52    635
59.54    542
59.56    545
59.58    520
59.6     449
59.62    436
59.64    413
59.66    400
59.68    450
59.7     457
59.72    452
59.74    382
59.76    359
59.78    405
59.8     410
59.82    429
59.84    461
59.86    452
59.88    518
59.9     544
59.92    490
59.94    425
59.96    428
59.98    473
60.0     463
60.02    472
60.04    473
60.06    416
60.08    472
60.1     469
60.12    351
60.14    305
60.16    368
60.18    468
60.2     490
60.22    565
60.24    575
60.26    561
60.28    599
60.3     576
60.32    504
60.34    423
60.36    431
60.38    413
60.4     335
60.42    356
60.44    325
60.46    336
60.48    351
60.5     408
60.52    442
60.54    450
60.56    477
60.58    433
60.6     436
60.62    395
60.64    358
60.66    363
60.68    317
60.7     361
60.72    395
60.74    420
60.76    444
60.78    424
60.8     483
60.82    472
60.84    532
60.86    581
60.88    567
60.9     603
60.92    584
60.94    559
60.96    478
60.98    395
61.0     393
61.02    370
61.04    348
61.06    406
61.08    483
61.1     518
61.12    538
61.14    581
61.16    564
61.18    516
61.2     571
61.22    569
61.24    571
61.26    601
61.28    601
61.3     555
61.32    533
61.34    580
61.36    572
61.38    572
61.4     600
61.42    603
61.44    576
61.46    535
61.48    553
61.5     527
61.52    544
61.54    604
61.56    640
61.58    638
61.6     650
61.62    733
61.64    738
61.66    777
61.68    810
61.7     744
61.72    762
61.74    740
61.76    755
61.78    759
61.8     895
61.82    1078
61.84    1234
61.86    1484
61.88    1714
61.9     2006
61.92    2410
61.94    2821
61.96    3474
61.98    4386
62.0     5770
62.02    7781
62.04    10427
62.06    13520
62.08    16471
62.1     18851
62.12    20006
62.14    19881
62.16    18479
62.18    16008
62.2     12988
62.22    10018
62.24    7537
62.26    5694
62.28    4344
62.3     3379
62.32    2597
62.34    2104
62.36    1703
62.38    1473
62.4     1286
62.42    1208
62.44    1152
62.46    1170
62.48    1112
62.5     1096
62.52    1050
62.54    928
62.56    820
62.58    805
62.6     773
62.62    764
62.64    659
62.66    649
62.68    583
62.7     622
62.72    664
62.74    674
62.76    633
62.78    629
62.8     658
62.82    653
62.84    571
62.86    545
62.88    476
62.9     483
62.92    485
62.94    522
62.96    500
62.98    524
63.0     541
63.02    555
63.04    501
63.06    513
63.08    476
63.1     450
63.12    451
63.14    493
63.16    550
63.18    587
63.2     568
63.22    622
63.24    568
63.26    599
63.28    586
63.3     487
63.32    472
63.34    450
63.36    461
63.38    454
63.4     424
63.42    441
63.44    453
63.46    533
63.48    565
63.5     526
63.52    533
63.54    571
63.56    576
63.58    591
63.6     620
63.62    573
63.64    548
63.66    555
63.68    512
63.7     510
63.72    472
63.74    482
63.76    502
63.78    489
63.8     515
63.82    447
63.84    458
63.86    515
63.88    489
63.9     525
63.92    514
63.94    524
63.96    528
63.98    457
64.0     445
64.02    415
64.04    425
64.06    490
64.08    498
64.1     561
64.12    568
64.14    602
64.16    628
64.18    588
64.2     552
64.22    506
64.24    456
64.26    482
64.28    431
64.3     455
64.32    469
64.34    486
64.36    513
64.38    500
64.4     541
64.42    602
64.44    584
64.46    644
64.48    655
64.5     751
64.52    798
64.54    796
64.56    818
64.58    890
64.6     980
64.62    1106
64.64    1263
64.66    1533
64.68    1816
64.7     2273
64.72    2909
64.74    3626
64.76    4303
64.78    4850
64.8     5120
64.82    5126
64.84    4871
64.86    4305
64.88    3611
64.9     2926
64.92    2363
64.94    1888
64.96    1484
64.98    1162
65.0     928
65.02    817
65.04    724
65.06    620
65.08    627
65.1     550
65.12    468
65.14    466
65.16    429
65.18    526
65.2     518
65.22    563
65.24    646
65.26    626
65.28    673
65.3     630
65.32    580
65.34    534
65.36    417
65.38    474
65.4     342
65.42    245
65.44    273
65.46    169
65.48    247
65.5     316
65.52    359
65.54    364
65.56    379
65.58    508
65.6     481
65.62    468
65.64    484
65.66    438
65.68    488
65.7     514
65.72    527
65.74    503
65.76    476
65.78    467
65.8     447
65.82    411
65.84    355
65.86    370
65.88    341
65.9     364
65.92    422
65.94    434
65.96    441
65.98    474
66.0     510
66.02    510
66.04    503
66.06    559
66.08    536
66.1     509
66.12    502
66.14    418
66.16    384
66.18    373
66.2     316
66.22    277
66.24    252
66.26    313
66.28    355
66.3     355
66.32    402
66.34    392
66.36    422
66.38    455
66.4     483
66.42    481
66.44    447
66.46    437
66.48    476
66.5     511
66.52    571
66.54    512
66.56    499
66.58    491
66.6     448
66.62    382
66.64    340
66.66    351
66.68    386
66.7     394
66.72    422
66.74    380
66.76    375
66.78    362
66.8     358
66.82    358
66.84    377
66.86    338
66.88    361
66.9     389
66.92    408
66.94    438
66.96    413
66.98    480
67.0     479
67.02    433
67.04    410
67.06    339
67.08    312
67.1     279
67.12    300
67.14    315
67.16    333
67.18    389
67.2     397
67.22    366
67.24    382
67.26    344
67.28    302
67.3     255
67.32    260
67.34    239
67.36    244
67.38    225
67.4     243
67.42    220
67.44    251
67.46    302
67.48    318
67.5     333
67.52    417
67.54    473
67.56    519
67.58    587
67.6     657
67.62    671
67.64    650
67.66    604
67.68    530
67.7     470
67.72    417
67.74    361
67.76    317
67.78    295
67.8     278
67.82    286
67.84    336
67.86    388
67.88    385
67.9     357
67.92    345
67.94    344
67.96    313
67.98    284
68.0     280
68.02    323
68.04    369
68.06    414
68.08    415
68.1     422
68.12    460
68.14    518
68.16    542
68.18    535
68.2     543
68.22    528
68.24    515
68.26    435
68.28    431
68.3     413
68.32    414
68.34    417
68.36    402
68.38    372
68.4     359
68.42    350
68.44    403
68.46    392
68.48    464
68.5     520
68.52    561
68.54    652
68.56    744
68.58    725
68.6     747
68.62    739
68.64    723
68.66    698
68.68    671
68.7     675
68.72    678
68.74    730
68.76    881
68.78    960
68.8     1082
68.82    1224
68.84    1403
68.86    1663
68.88    1947
68.9     2353
68.92    2829
68.94    3322
68.96    3893
68.98    4306
69.0     4525
69.02    4591
69.04    4447
69.06    4057
69.08    3507
69.1     2973
69.12    2446
69.14    1961
69.16    1619
69.18    1322
69.2     1060
69.22    929
69.24    889
69.26    814
69.28    776
69.3     741
69.32    699
69.34    677
69.36    662
69.38    559
69.4     491
69.42    492
69.44    537
69.46    531
69.48    569
69.5     550
69.52    519
69.54    464
69.56    420
69.58    382
69.6     390
69.62    411
69.64    488
69.66    536
69.68    557
69.7     592
69.72    629
69.74    586
69.76    560
69.78    505
69.8     481
69.82    443
69.84    425
69.86    454
69.88    457
69.9     494
69.92    549
69.94    509
69.96    486
69.98    491
70.0     520
70.02    478
70.04    465
70.06    413
70.08    410
70.1     374
70.12    410
70.14    364
70.16    412
70.18    403
70.2     438
70.22    457
70.24    518
70.26    486
70.28    542
70.3     564
70.32    545
70.34    536
70.36    560
70.38    543
70.4     666
70.42    727
70.44    825
70.46    913
70.48    1010
70.5     1092
70.52    1224
70.54    1450
70.56    1669
70.58    1958
70.6     2156
70.62    2284
70.64    2377
70.66    2333
70.68    2204
70.7     2082
70.72    1905
70.74    1666
70.76    1370
70.78    1122
70.8     914
70.82    762
70.84    667
70.86    598
70.88    582
70.9     559
70.92    523
70.94    499
70.96    483
70.98    520
71.0     577
71.02    620
71.04    624
71.06    651
71.08    579
71.1     483
71.12    443
71.14    427
71.16    363
71.18    319
71.2     296
71.22    287
71.24    302
71.26    382
71.28    418
71.3     464
71.32    537
71.34    564
71.36    559
71.38    548
71.4     547
71.42    513
71.44    489
71.46    478
71.48    460
71.5     430
71.52    425
71.54    443
71.56    492
71.58    482
71.6     492
71.62    474
71.64    465
71.66    495
71.68    485
71.7     459
71.72    481
71.74    552
71.76    515
71.78    472
71.8     466
71.82    441
71.84    414
71.86    358
71.88    295
71.9     307
71.92    364
71.94    380
71.96    371
71.98    428
72.0     452
72.02    462
72.04    525
72.06    576
72.08    680
72.1     778
72.12    799
72.14    775
72.16    802
72.18    816
72.2     816
72.22    836
72.24    897
72.26    954
72.28    1005
72.3     1076
72.32    1169
72.34    1321
72.36    1579
72.38    1898
72.4     2280
72.42    2874
72.44    3598
72.46    4346
72.48    5067
72.5     5629
72.52    5973
72.54    5991
72.56    5690
72.58    5091
72.6     4336
72.62    3661
72.64    2961
72.66    2423
72.68    1987
72.7     1646
72.72    1410
72.74    1174
72.76    1001
72.78    894
72.8     845
72.82    813
72.84    813
72.86    874
72.88    800
72.9     769
72.92    685
72.94    639
72.96    602
72.98    588
73.0     538
73.02    492
73.04    464
73.06    418
73.08    393
73.1     413
73.12    483
73.14    638
73.16    635
73.18    660
73.2     596
73.22    604
73.24    639
73.26    647
73.28    699
73.3     787
73.32    919
73.34    1048
73.36    1135
73.38    1259
73.4     1301
73.42    1380
73.44    1408
73.46    1282
73.48    1126
73.5     1000
73.52    846
73.54    709
73.56    599
73.58    533
73.6     464
73.62    452
73.64    425
73.66    386
73.68    367
73.7     386
73.72    410
73.74    398
73.76    431
73.78    487
73.8     481
73.82    495
73.84    506
73.86    477
73.88    447
73.9     509
73.92    517
73.94    534
73.96    566
73.98    579
74.0     533
74.02    607
74.04    638
74.06    647
74.08    706
74.1     870
74.12    1020
74.14    1290
74.16    1563
74.18    1966
74.2     2292
74.22    2644
74.24    2801
74.26    2863
74.28    2739
74.3     2567
74.32    2278
74.34    2001
74.36    1676
74.38    1496
74.4     1312
74.42    1137
74.44    1015
74.46    905
74.48    766
74.5     755
74.52    698
74.54    710
74.56    682
74.58    737
74.6     766
74.62    814
74.64    883
74.66    900
74.68    949
74.7     992
74.72    1037
74.74    1122
74.76    1249
74.78    1431
74.8     1649
74.82    1885
74.84    2095
74.86    2303
74.88    2390
74.9     2369
74.92    2355
74.94    2225
74.96    2079
74.98    1872
75.0     1643
75.02    1367
75.04    1217
75.06    1082
75.08    906
75.1     859
75.12    868
75.14    783
75.16    726
75.18    637
75.2     553
75.22    443
75.24    429
75.26    365
75.28    353
75.3     453
75.32    578
75.34    592
75.36    659
75.38    651
75.4     663
75.42    640
75.44    572
75.46    492
75.48    507
75.5     510
75.52    438
75.54    360
75.56    320
75.58    258
75.6     298
75.62    282
75.64    217
75.66    259
75.68    326
75.7     295
75.72    231
75.74    293
75.76    351
75.78    404
75.8     487
75.82    431
75.84    417
75.86    445
75.88    403
75.9     345
75.92    369
75.94    443
75.96    492
75.98    464
76.0     468
76.02    384
76.04    415
76.06    420
76.08    390
76.1     382
76.12    408
76.14    360
76.16    375
76.18    345
76.2     381
76.22    376
76.24    445
76.26    455
76.28    494
76.3     519
76.32    464
76.34    447
76.36    494
76.38    507
76.4     473
76.42    457
76.44    452
76.46    449
76.48    475
76.5     470
76.52    434
76.54    480
76.56    431
76.58    456
76.6     363
76.62    402
76.64    382
76.66    425
76.68    412
76.7     389
76.72    385
76.74    350
76.76    316
76.78    358
76.8     314
76.82    366
76.84    351
76.86    375
76.88    381
76.9     408
76.92    468
76.94    464
76.96    520
76.98    536
77.0     551
77.02    551
77.04    511
77.06    484
77.08    535
77.1     542
77.12    643
77.14    703
77.16    780
77.18    859
77.2     864
77.22    859
77.24    826
77.26    871
77.28    932
77.3     1010
77.32    1209
77.34    1347
77.36    1540
77.38    1852
77.4     2219
77.42    2757
77.44    3349
77.46    4046
77.48    4860
77.5     5635
77.52    6249
77.54    6527
77.56    6605
77.58    6421
77.6     5966
77.62    5310
77.64    4520
77.66    3730
77.68    3127
77.7     2561
77.72    2138
77.74    1802
77.76    1580
77.78    1400
77.8     1165
77.82    966
77.84    899
77.86    756
77.88    735
77.9     657
77.92    644
77.94    664
77.96    609
77.98    545
78.0     449
78.02    465
78.04    521
78.06    483
78.08    514
78.1     441
78.12    433
78.14    464
78.16    467
78.18    489
78.2     579
78.22    673
78.24    680
78.26    695
78.28    663
78.3     598
78.32    518
78.34    458
78.36    398
78.38    319
78.4     290
78.42    226
78.44    221
78.46    241
78.48    304
78.5     284
78.52    277
78.54    287
78.56    336
78.58    385
78.6     455
78.62    501
78.64    575
78.66    572
78.68    564
78.7     446
78.72    368
78.74    340
78.76    360
78.78    346
78.8     329
78.82    324
78.84    311
78.86    284
78.88    278
78.9     306
78.92    317
78.94    363
78.96    400
78.98    402
79.0     373
79.02    355
79.04    356
79.06    415
79.08    450
79.1     469
79.12    450
79.14    418
79.16    388
79.18    410
79.2     364
79.22    346
79.24    341
79.26    418
79.28    435
79.3     418
79.32    412
79.34    372
79.36    342
79.38    388
79.4     391
79.42    393
79.44    378
79.46    413
79.48    452
79.5     440
79.52    392
79.54    361
79.56    316
79.58    340
79.6     355
79.62    389
79.64    378
79.66    382
79.68    374
79.7     347
79.72    301
79.74    320
79.76    402
79.78    481
79.8     545
79.82    608
79.84    596
79.86    539
79.88    503
79.9     494
79.92    474
79.94    488
79.96    594
79.98    593
80.0     545
80.02    522
80.04    450
80.06    379
80.08    436
80.1     428
80.12    389
80.14    379
80.16    396
80.18    373
80.2     321
80.22    351
80.24    394
80.26    449
80.28    551
80.3     524
80.32    481
80.34    496
80.36    540
80.38    564
80.4     541
80.42    518
80.44    538
80.46    483
80.48    420
80.5     299
80.52    167
80.54    119
80.56    161
80.58    185
80.6     133
80.62    184
80.64    235
80.66    314
80.68    395
80.7     430
80.72    430
80.74    482
80.76    591
80.78    629
80.8     559
80.82    538
80.84    472
80.86    459
80.88    417
80.9     292
80.92    252
80.94    241
80.96    250
80.98    246
81.0     246
81.02    266
81.04    314
81.06    328
81.08    326
81.1     310
81.12    337
81.14    315
81.16    256
81.18    263
81.2     328
81.22    352
81.24    368
81.26    318
81.28    318
81.3     370
81.32    325
81.34    279
81.36    245
81.38    224
81.4     259
81.42    270
81.44    267
81.46    231
81.48    187
81.5     231
81.52    222
81.54    233
81.56    329
81.58    375
81.6     412
81.62    448
81.64    466
81.66    411
81.68    334
81.7     333
81.72    296
81.74    283
81.76    323
81.78    320
81.8     222
81.82    192
81.84    225
81.86    242
81.88    252
81.9     273
81.92    324
81.94    350
81.96    367
81.98    351
82.0     279
82.02    278
82.04    347
82.06    410
82.08    454
82.1     458
82.12    474
82.14    386
82.16    313
82.18    181
82.2     147
82.22    183
82.24    242
82.26    348
82.28    400
82.3     376
82.32    370
82.34    346
82.36    272
82.38    165
82.4     216
82.42    241
82.44    229
82.46    260
82.48    236
82.5     189
82.52    212
82.54    272
82.56    304
82.58    293
82.6     395
82.62    480
82.64    515
82.66    466
82.68    398
82.7     332
82.72    290
82.74    271
82.76    297
82.78    278
82.8     326
82.82    416
82.84    421
82.86    355
82.88    390
82.9     454
82.92    485
82.94    526
82.96    586
82.98    578
83.0     516
83.02    479
83.04    434
83.06    415
83.08    423
83.1     406
83.12    393
83.14    384
83.16    341
83.18    204
83.2     134
83.22    138
83.24    191
83.26    245
83.28    257
83.3     252
83.32    260
83.34    243
83.36    215
83.38    167
83.4     234
83.42    328
83.44    412
83.46    454
83.48    418
83.5     420
83.52    432
83.54    471
83.56    503
83.58    545
83.6     550
83.62    531
83.64    496
83.66    396
83.68    259
83.7     255
83.72    253
83.74    336
83.76    347
83.78    356
83.8     287
83.82    244
83.84    221
83.86    148
83.88    79
83.9     75
83.92    72
83.94    114
83.96    113
83.98    93
84.0     66
84.02    148
84.04    181
84.06    213
84.08    262
84.1     282
84.12    315
84.14    323
84.16    333
84.18    342
84.2     365
84.22    425
84.24    457
84.26    496
84.28    519
84.3     525
84.32    517
84.34    491
84.36    481
84.38    471
84.4     467
84.42    444
84.44    322
84.46    246
84.48    170
84.5     123
84.52    96
84.54    146
84.56    174
84.58    236
84.6     319
84.62    400
84.64    390
84.66    506
84.68    501
84.7     552
84.72    620
84.74    638
84.76    601
84.78    576
84.8     493
84.82    459
84.84    401
84.86    422
84.88    352
84.9     384
84.92    381
84.94    367
84.96    362
84.98    346
85.0     287
85.02    253
85.04    225
85.06    261
85.08    251
85.1     277
85.12    294
85.14    335
85.16    323
85.18    315
85.2     272
85.22    291
85.24    312
85.26    314
85.28    295
85.3     298
85.32    322
85.34    356
85.36    360
85.38    295
85.4     299
85.42    369
85.44    396
85.46    320
85.48    311
85.5     296
85.52    293
85.54    280
85.56    292
85.58    274
85.6     306
85.62    299
85.64    306
85.66    205
85.68    146
85.7     130
85.72    118
85.74    92
85.76    169
85.78    284
85.8     352
85.82    364
85.84    404
85.86    359
85.88    338
85.9     375
85.92    319
85.94    251
85.96    219
85.98    226
86.0     257
86.02    242
86.04    250
86.06    279
86.08    420
86.1     500
86.12    471
86.14    397
86.16    381
86.18    472
86.2     543
86.22    611
86.24    654
86.26    753
86.28    825
86.3     861
86.32    830
86.34    825
86.36    853
86.38    970
86.4     1046
86.42    1131
86.44    1214
86.46    1223
86.48    1139
86.5     1100
86.52    954
86.54    895
86.56    830
86.58    770
86.6     697
86.62    599
86.64    576
86.66    438
86.68    403
86.7     362
86.72    300
86.74    351
86.76    437
86.78    451
86.8     478
86.82    449
86.84    390
86.86    316
86.88    325
86.9     295
86.92    332
86.94    319
86.96    366
86.98    412
87.0     417
87.02    361
87.04    288
87.06    306
87.08    338
87.1     362
87.12    450
87.14    428
87.16    494
87.18    482
87.2     390
87.22    327
87.24    273
87.26    264
87.28    250
87.3     259
87.32    316
87.34    324
87.36    410
87.38    368
87.4     295
87.42    266
87.44    256
87.46    267
87.48    260
87.5     378
87.52    439
87.54    432
87.56    467
87.58    429
87.6     446
87.62    331
87.64    290
87.66    273
87.68    273
87.7     330
87.72    260
87.74    181
87.76    139
87.78    123
87.8     200
87.82    190
87.84    281
87.86    379
87.88    453
87.9     496
87.92    479
87.94    403
87.96    358
87.98    361
88.0     355
88.02    409
88.04    452
88.06    499
88.08    448
88.1     422
88.12    367
88.14    341
88.16    371
88.18    354
88.2     306
88.22    381
88.24    396
88.26    433
88.28    359
88.3     342
88.32    284
88.34    265
88.36    226
88.38    230
88.4     237
88.42    253
88.44    240
88.46    262
88.48    277
88.5     253
88.52    198
88.54    162
88.56    175
88.58    220
88.6     244
88.62    284
88.64    307
88.66    356
88.68    373
88.7     302
88.72    342
88.74    368
88.76    407
88.78    397
88.8     423
88.82    428
88.84    384
88.86    381
88.88    300
88.9     219
88.92    269
88.94    315
88.96    363
88.98    422
89.0     409
89.02    388
89.04    369
89.06    338
89.08    259
89.1     220
89.12    258
89.14    315
89.16    417
89.18    540
89.2     548
89.22    539
89.24    467
89.26    328
89.28    267
89.3     254
89.32    253
89.34    286
89.36    386
89.38    467
89.4     508
89.42    476
89.44    386
89.46    309
89.48    262
89.5     194
89.52    172
89.54    207
89.56    256
89.58    328
89.6     369
89.62    395
89.64    400
89.66    355
89.68    352
89.7     367
89.72    419
89.74    475
89.76    524
89.78    567
89.8     507
89.82    487
89.84    442
89.86    366
89.88    432
89.9     462
89.92    514
89.94    557
89.96    538
89.98    532
90.0     510
