?
5.0      648
5.02     648
5.04     838
5.06     766
5.08     809
5.1      804
5.12     795
5.14     762
5.16     772
5.18     775
5.2      775
5.22     784
5.24     769
5.26     780
5.28     734
5.3      727
5.32     681
5.34     688
5.36     757
5.38     747
5.4      765
5.42     821
5.44     847
5.46     840
5.48     850
5.5      851
5.52     827
5.54     829
5.56     839
5.58     801
5.6      828
5.62     867
5.64     858
5.66     820
5.68     863
5.7      838
5.72     828
5.74     825
5.76     812
5.78     843
5.8      861
5.82     860
5.84     847
5.86     827
5.88     873
5.9      881
5.92     897
5.94     900
5.96     902
5.98     936
6.0      907
6.02     916
6.04     870
6.06     844
6.08     840
6.1      847
6.12     876
6.14     878
6.16     914
6.18     939
6.2      927
6.22     961
6.24     902
6.26     909
6.28     873
6.3      930
6.32     960
6.34     972
6.36     1010
6.38     1004
6.4      976
6.42     941
6.44     908
6.46     845
6.48     811
6.5      846
6.52     873
6.54     870
6.56     962
6.58     980
6.6      979
6.62     966
6.64     990
6.66     936
6.68     941
6.7      909
6.72     925
6.74     905
6.76     976
6.78     952
6.8      951
6.82     964
6.84     999
6.86     985
6.88     1015
6.9      991
6.92     1018
6.94     967
6.96     966
6.98     936
7.0      944
7.02     943
7.04     909
7.06     928
7.08     953
7.1      942
7.12     967
7.14     958
7.16     965
7.18     994
7.2      1036
7.22     981
7.24     998
7.26     1030
7.28     1022
7.3      1009
7.32     1064
7.34     1039
7.36     1009
7.38     1018
7.4      1044
7.42     944
7.44     1013
7.46     955
7.48     1014
7.5      1014
7.52     1106
7.54     1098
7.56     1098
7.58     1117
7.6      1106
7.62     1051
7.64     1099
7.66     1026
7.68     1103
7.7      1048
7.72     1055
7.74     1043
7.76     1038
7.78     1036
7.8      1026
7.82     1061
7.84     1044
7.86     1009
7.88     1032
7.9      1000
7.92     960
7.94     983
7.96     950
7.98     987
8.0      977
8.02     975
8.04     995
8.06     998
8.08     1062
8.1      1083
8.12     1063
8.14     1107
8.16     1075
8.18     1057
8.2      1022
8.22     1018
8.24     1050
8.26     1037
8.28     1038
8.3      992
8.32     1011
8.34     1003
8.36     1013
8.38     998
8.4      1028
8.42     1015
8.44     1040
8.46     1042
8.48     1006
8.5      982
8.52     1014
8.54     941
8.56     1001
8.58     997
8.6      993
8.62     989
8.64     984
8.66     1021
8.68     1049
8.7      1039
8.72     1048
8.74     998
8.76     1043
8.78     1018
8.8      1046
8.82     1012
8.84     1012
8.86     1056
8.88     1050
8.9      1007
8.92     1026
8.94     1041
8.96     1092
8.98     1117
9.0      1123
9.02     1092
9.04     1116
9.06     1083
9.08     1038
9.1      1012
9.12     1007
9.14     1071
9.16     1039
9.18     1059
9.2      1001
9.22     1017
9.24     1013
9.26     1006
9.28     1001
9.3      998
9.32     1006
9.34     1075
9.36     980
9.38     985
9.4      941
9.42     938
9.44     881
9.46     882
9.48     876
9.5      871
9.52     883
9.54     940
9.56     914
9.58     924
9.6      948
9.62     931
9.64     890
9.66     948
9.68     913
9.7      929
9.72     932
9.74     927
9.76     919
9.78     951
9.8      972
9.82     929
9.84     941
9.86     945
9.88     871
9.9      874
9.92     838
9.94     802
9.96     843
9.98     910
10.0     891
10.02    950
10.04    950
10.06    900
10.08    894
10.1     864
10.12    853
10.14    836
10.16    840
10.18    868
10.2     848
10.22    848
10.24    824
10.26    810
10.28    802
10.3     816
10.32    843
10.34    866
10.36    877
10.38    914
10.4     838
10.42    840
10.44    887
10.46    870
10.48    850
10.5     834
10.52    861
10.54    838
10.56    790
10.58    754
10.6     675
10.62    776
10.64    740
10.66    738
10.68    743
10.7     705
10.72    752
10.74    722
10.76    691
10.78    752
10.8     758
10.82    804
10.84    784
10.86    842
10.88    836
10.9     836
10.92    844
10.94    844
10.96    880
10.98    912
11.0     838
11.02    840
11.04    850
11.06    859
11.08    821
11.1     834
11.12    808
11.14    817
11.16    833
11.18    829
11.2     790
11.22    780
11.24    772
11.26    812
11.28    785
11.3     776
11.32    773
11.34    815
11.36    839
11.38    904
11.4     875
11.42    847
11.44    893
11.46    899
11.48    807
11.5     797
11.52    755
11.54    813
11.56    794
11.58    828
11.6     805
11.62    832
11.64    883
11.66    853
11.68    836
11.7     872
11.72    866
11.74    941
11.76    907
11.78    914
11.8     863
11.82    895
11.84    920
11.86    864
11.88    850
11.9     894
11.92    921
11.94    925
11.96    886
11.98    874
12.0     868
12.02    911
12.04    894
12.06    829
12.08    858
12.1     913
12.12    887
12.14    840
12.16    847
12.18    865
12.2     913
12.22    923
12.24    879
12.26    930
12.28    976
12.3     998
12.32    966
12.34    940
12.36    941
12.38    936
12.4     972
12.42    945
12.44    973
12.46    997
12.48    949
12.5     973
12.52    1011
12.54    1005
12.56    986
12.58    993
12.6     1017
12.62    967
12.64    970
12.66    914
12.68    808
12.7     853
12.72    969
12.74    949
12.76    955
12.78    969
12.8     976
12.82    946
12.84    1008
12.86    988
12.88    953
12.9     1024
12.92    1075
12.94    1008
12.96    986
12.98    993
13.0     990
13.02    975
13.04    992
13.06    967
13.08    1012
13.1     1008
13.12    1010
13.14    1022
13.16    1050
13.18    1119
13.2     1130
13.22    1072
13.24    1053
13.26    1104
13.28    1122
13.3     1082
13.32    1075
13.34    1085
13.36    1103
13.38    1142
13.4     1101
13.42    1091
13.44    1131
13.46    1160
13.48    1171
13.5     1119
13.52    1088
13.54    1099
13.56    1166
13.58    1253
13.6     1254
13.62    1269
13.64    1260
13.66    1310
13.68    1342
13.7     1246
13.72    1193
13.74    1158
13.76    1185
13.78    1261
13.8     1259
13.82    1190
13.84    1176
13.86    1253
13.88    1254
13.9     1197
13.92    1235
13.94    1258
13.96    1304
13.98    1399
14.0     1377
14.02    1304
14.04    1317
14.06    1361
14.08    1328
14.1     1253
14.12    1314
14.14    1310
14.16    1264
14.18    1285
14.2     1319
14.22    1340
14.24    1337
14.26    1317
14.28    1295
14.3     1276
14.32    1317
14.34    1309
14.36    1310
14.38    1424
14.4     1486
14.42    1518
14.44    1437
14.46    1430
14.48    1380
14.5     1353
14.52    1349
14.54    1302
14.56    1290
14.58    1346
14.6     1339
14.62    1367
14.64    1398
14.66    1434
14.68    1360
14.7     1428
14.72    1493
14.74    1428
14.76    1411
14.78    1468
14.8     1487
14.82    1393
14.84    1365
14.86    1391
14.88    1473
14.9     1539
14.92    1587
14.94    1588
14.96    1616
14.98    1658
15.0     1614
15.02    1461
15.04    1387
15.06    1425
15.08    1473
15.1     1456
15.12    1509
15.14    1537
15.16    1602
15.18    1589
15.2     1541
15.22    1523
15.24    1498
15.26    1482
15.28    1467
15.3     1428
15.32    1459
15.34    1458
15.36    1435
15.38    1424
15.4     1457
15.42    1501
15.44    1529
15.46    1528
15.48    1482
15.5     1498
15.52    1536
15.54    1480
15.56    1403
15.58    1432
15.6     1416
15.62    1463
15.64    1490
15.66    1505
15.68    1533
15.7     1639
15.72    1696
15.74    1678
15.76    1674
15.78    1758
15.8     1792
15.82    1809
15.84    1810
15.86    1907
15.88    1964
15.9     1976
15.92    2029
15.94    2044
15.96    2084
15.98    2208
16.0     2334
16.02    2382
16.04    2451
16.06    2601
16.08    2685
16.1     2764
16.12    2925
16.14    3115
16.16    3275
16.18    3475
16.2     3771
16.22    4112
16.24    4378
16.26    4782
16.28    5303
16.3     5948
16.32    6705
16.34    7631
16.36    8706
16.38    9974
16.4     11616
16.42    13677
16.44    16222
16.46    19661
16.48    24188
16.5     29947
16.52    36677
16.54    43015
16.56    47046
16.58    47673
16.6     44705
16.62    38653
16.64    30728
16.66    22251
16.68    14625
16.7     9195
16.72    6386
16.74    5195
16.76    4527
16.78    4083
16.8     3645
16.82    3316
16.84    3159
16.86    2949
16.88    2608
16.9     2481
16.92    2441
16.94    2334
16.96    2167
16.98    2062
17.0     1946
17.02    1863
17.04    1811
17.06    1791
17.08    1681
17.1     1733
17.12    1724
17.14    1662
17.16    1595
17.18    1580
17.2     1542
17.22    1506
17.24    1452
17.26    1438
17.28    1379
17.3     1441
17.32    1430
17.34    1376
17.36    1389
17.38    1405
17.4     1394
17.42    1369
17.44    1295
17.46    1183
17.48    1221
17.5     1282
17.52    1255
17.54    1243
17.56    1239
17.58    1188
17.6     1208
17.62    1260
17.64    1265
17.66    1173
17.68    1185
17.7     1152
17.72    1122
17.74    1108
17.76    1030
17.78    923
17.8     971
17.82    995
17.84    1054
17.86    1065
17.88    1128
17.9     1129
17.92    1138
17.94    1158
17.96    1200
17.98    1133
18.0     1077
18.02    1059
18.04    1086
18.06    1041
18.08    1058
18.1     1026
18.12    978
18.14    982
18.16    1056
18.18    952
18.2     899
18.22    900
18.24    895
18.26    892
18.28    915
18.3     879
18.32    840
18.34    901
18.36    952
18.38    886
18.4     913
18.42    918
18.44    964
18.46    998
18.48    990
18.5     925
18.52    908
18.54    919
18.56    878
18.58    880
18.6     969
18.62    954
18.64    940
18.66    971
18.68    943
18.7     904
18.72    914
18.74    904
18.76    884
18.78    946
18.8     977
18.82    928
18.84    922
18.86    934
18.88    912
18.9     885
18.92    846
18.94    835
18.96    817
18.98    817
19.0     825
19.02    855
19.04    873
19.06    968
19.08    959
19.1     861
19.12    797
19.14    848
19.16    911
19.18    903
19.2     858
19.22    798
19.24    796
19.26    907
19.28    870
19.3     755
19.32    761
19.34    818
19.36    870
19.38    807
19.4     754
19.42    808
19.44    909
19.46    932
19.48    841
19.5     774
19.52    831
19.54    829
19.56    741
19.58    719
19.6     787
19.62    923
19.64    953
19.66    880
19.68    771
19.7     791
19.72    831
19.74    770
19.76    666
19.78    671
19.8     740
19.82    797
19.84    781
19.86    786
19.88    768
19.9     786
19.92    771
19.94    757
19.96    740
19.98    767
20.0     815
20.02    844
20.04    863
20.06    881
20.08    928
20.1     977
20.12    931
20.14    868
20.16    770
20.18    763
20.2     742
20.22    726
20.24    633
20.26    613
20.28    710
20.3     784
20.32    773
20.34    746
20.36    755
20.38    769
20.4     836
20.42    850
20.44    793
20.46    836
20.48    889
20.5     914
20.52    884
20.54    795
20.56    770
20.58    783
20.6     876
20.62    895
20.64    886
20.66    915
20.68    908
20.7     941
20.72    880
20.74    869
20.76    851
20.78    865
20.8     866
20.82    864
20.84    779
20.86    757
20.88    757
20.9     840
20.92    875
20.94    869
20.96    837
20.98    824
21.0     830
21.02    827
21.04    756
21.06    735
21.08    741
21.1     725
21.12    736
21.14    694
21.16    722
21.18    742
21.2     786
21.22    825
21.24    848
21.26    826
21.28    738
21.3     731
21.32    763
21.34    805
21.36    801
21.38    789
21.4     788
21.42    785
21.44    772
21.46    717
21.48    676
21.5     764
21.52    830
21.54    847
21.56    792
21.58    744
21.6     691
21.62    668
21.64    641
21.66    658
21.68    730
21.7     779
21.72    778
21.74    762
21.76    729
21.78    744
21.8     722
21.82    776
21.84    779
21.86    875
21.88    861
21.9     858
21.92    769
21.94    766
21.96    661
21.98    693
22.0     720
22.02    814
22.04    818
22.06    858
22.08    786
22.1     818
22.12    755
22.14    757
22.16    697
22.18    717
22.2     677
22.22    678
22.24    654
22.26    634
22.28    582
22.3     538
22.32    541
22.34    541
22.36    564
22.38    598
22.4     669
22.42    727
22.44    784
22.46    729
22.48    683
22.5     594
22.52    591
22.54    548
22.56    533
22.58    556
22.6     657
22.62    668
22.64    659
22.66    592
22.68    705
22.7     697
22.72    758
22.74    780
22.76    769
22.78    779
22.8     743
22.82    672
22.84    631
22.86    592
22.88    658
22.9     621
22.92    671
22.94    656
22.96    644
22.98    671
23.0     612
23.02    580
23.04    564
23.06    539
23.08    606
23.1     646
23.12    706
23.14    703
23.16    715
23.18    728
23.2     682
23.22    604
23.24    540
23.26    489
23.28    541
23.3     537
23.32    665
23.34    722
23.36    782
23.38    728
23.4     697
23.42    642
23.44    633
23.46    595
23.48    611
23.5     527
23.52    547
23.54    541
23.56    601
23.58    627
23.6     668
23.62    631
23.64    617
23.66    596
23.68    582
23.7     529
23.72    556
23.74    600
23.76    683
23.78    741
23.8     714
23.82    610
23.84    596
23.86    622
23.88    643
23.9     680
23.92    707
23.94    724
23.96    744
23.98    701
24.0     624
24.02    563
24.04    596
24.06    654
24.08    654
24.1     638
24.12    569
24.14    572
24.16    574
24.18    620
24.2     631
24.22    603
24.24    604
24.26    666
24.28    721
24.3     679
24.32    601
24.34    541
24.36    539
24.38    550
24.4     500
24.42    430
24.44    395
24.46    384
24.48    478
24.5     546
24.52    657
24.54    666
24.56    713
24.58    681
24.6     677
24.62    649
24.64    600
24.66    476
24.68    524
24.7     611
24.72    667
24.74    640
24.76    654
24.78    614
24.8     654
24.82    689
24.84    686
24.86    634
24.88    673
24.9     720
24.92    750
24.94    667
24.96    589
24.98    477
25.0     498
25.02    565
25.04    560
25.06    558
25.08    575
25.1     621
25.12    684
25.14    660
25.16    607
25.18    527
25.2     555
25.22    538
25.24    539
25.26    534
25.28    571
25.3     618
25.32    643
25.34    649
25.36    582
25.38    539
25.4     535
25.42    529
25.44    581
25.46    606
25.48    621
25.5     648
25.52    639
25.54    629
25.56    627
25.58    661
25.6     708
25.62    735
25.64    784
25.66    784
25.68    760
25.7     779
25.72    733
25.74    632
25.76    588
25.78    599
25.8     574
25.82    562
25.84    601
25.86    607
25.88    656
25.9     675
25.92    642
25.94    617
25.96    650
25.98    695
26.0     621
26.02    599
26.04    600
26.06    613
26.08    615
26.1     558
26.12    537
26.14    558
26.16    568
26.18    642
26.2     582
26.22    609
26.24    598
26.26    566
26.28    537
26.3     504
26.32    504
26.34    510
26.36    515
26.38    611
26.4     623
26.42    696
26.44    634
26.46    623
26.48    614
26.5     609
26.52    590
26.54    556
26.56    555
26.58    546
26.6     589
26.62    619
26.64    596
26.66    595
26.68    578
26.7     597
26.72    621
26.74    627
26.76    629
26.78    554
26.8     506
26.82    440
26.84    430
26.86    381
26.88    461
26.9     623
26.92    714
26.94    712
26.96    650
26.98    562
27.0     483
27.02    483
27.04    468
27.06    464
27.08    516
27.1     564
27.12    536
27.14    533
27.16    540
27.18    564
27.2     582
27.22    640
27.24    639
27.26    680
27.28    653
27.3     560
27.32    544
27.34    487
27.36    470
27.38    457
27.4     443
27.42    476
27.44    574
27.46    630
27.48    638
27.5     592
27.52    622
27.54    547
27.56    591
27.58    606
27.6     609
27.62    624
27.64    605
27.66    503
27.68    471
27.7     502
27.72    573
27.74    651
27.76    673
27.78    673
27.8     619
27.82    592
27.84    568
27.86    560
27.88    612
27.9     672
27.92    730
27.94    754
27.96    678
27.98    693
28.0     610
28.02    671
28.04    680
28.06    657
28.08    659
28.1     574
28.12    541
28.14    477
28.16    499
28.18    574
28.2     607
28.22    689
28.24    686
28.26    667
28.28    647
28.3     510
28.32    534
28.34    523
28.36    555
28.38    577
28.4     570
28.42    573
28.44    588
28.46    613
28.48    625
28.5     585
28.52    663
28.54    626
28.56    600
28.58    631
28.6     616
28.62    588
28.64    528
28.66    485
28.68    470
28.7     465
28.72    509
28.74    485
28.76    551
28.78    625
28.8     682
28.82    690
28.84    632
28.86    558
28.88    546
28.9     593
28.92    659
28.94    691
28.96    702
28.98    632
29.0     669
29.02    653
29.04    595
29.06    542
29.08    494
29.1     504
29.12    530
29.14    541
29.16    504
29.18    523
29.2     549
29.22    576
29.24    622
29.26    674
29.28    683
29.3     675
29.32    671
29.34    704
29.36    687
29.38    666
29.4     582
29.42    549
29.44    558
29.46    571
29.48    595
29.5     588
29.52    582
29.54    625
29.56    549
29.58    489
29.6     429
29.62    417
29.64    438
29.66    461
29.68    516
29.7     558
29.72    562
29.74    569
29.76    556
29.78    532
29.8     530
29.82    553
29.84    501
29.86    548
29.88    545
29.9     555
29.92    537
29.94    546
29.96    597
29.98    556
30.0     582
30.02    565
30.04    528
30.06    568
30.08    552
30.1     556
30.12    581
30.14    615
30.16    650
30.18    607
30.2     653
30.22    636
30.24    609
30.26    561
30.28    506
30.3     452
30.32    465
30.34    536
30.36    598
30.38    606
30.4     619
30.42    625
30.44    610
30.46    602
30.48    566
30.5     542
30.52    498
30.54    527
30.56    537
30.58    474
30.6     502
30.62    546
30.64    541
30.66    592
30.68    557
30.7     532
30.72    458
30.74    397
30.76    425
30.78    429
30.8     521
30.82    534
30.84    562
30.86    584
30.88    530
30.9     584
30.92    640
30.94    682
30.96    740
30.98    698
31.0     630
31.02    511
31.04    449
31.06    415
31.08    396
31.1     482
31.12    560
31.14    574
31.16    552
31.18    455
31.2     395
31.22    389
31.24    437
31.26    553
31.28    604
31.3     620
31.32    602
31.34    551
31.36    531
31.38    519
31.4     525
31.42    595
31.44    609
31.46    623
31.48    605
31.5     553
31.52    515
31.54    535
31.56    512
31.58    528
31.6     536
31.62    601
31.64    665
31.66    641
31.68    606
31.7     523
31.72    428
31.74    432
31.76    431
31.78    439
31.8     566
31.82    679
31.84    708
31.86    669
31.88    593
31.9     470
31.92    408
31.94    424
31.96    473
31.98    554
32.0     637
32.02    677
32.04    691
32.06    681
32.08    621
32.1     599
32.12    671
32.14    775
32.16    918
32.18    998
32.2     1004
32.22    995
32.24    927
32.26    777
32.28    628
32.3     651
32.32    706
32.34    825
32.36    921
32.38    892
32.4     903
32.42    821
32.44    658
32.46    539
32.48    452
32.5     498
32.52    590
32.54    657
32.56    702
32.58    644
32.6     621
32.62    533
32.64    446
32.66    510
32.68    557
32.7     706
32.72    834
32.74    896
32.76    954
32.78    851
32.8     808
32.82    798
32.84    786
32.86    867
32.88    871
32.9     879
32.92    853
32.94    868
32.96    806
32.98    710
33.0     715
33.02    738
33.04    756
33.06    818
33.08    842
33.1     808
33.12    823
33.14    834
33.16    786
33.18    798
33.2     809
33.22    898
33.24    1007
33.26    1103
33.28    1134
33.3     1138
33.32    1187
33.34    1277
33.36    1417
33.38    1693
33.4     2014
33.42    2430
33.44    2913
33.46    3614
33.48    4590
33.5     6136
33.52    8077
33.54    10038
33.56    11691
33.58    12530
33.6     12404
33.62    11326
33.64    9533
33.66    7442
33.68    5394
33.7     3877
33.72    2912
33.74    2351
33.76    2082
33.78    1788
33.8     1574
33.82    1389
33.84    1237
33.86    1176
33.88    1138
33.9     1122
33.92    1184
33.94    1200
33.96    1096
33.98    973
34.0     851
34.02    784
34.04    852
34.06    918
34.08    955
34.1     1012
34.12    1022
34.14    934
34.16    782
34.18    665
34.2     616
34.22    672
34.24    771
34.26    791
34.28    810
34.3     819
34.32    780
34.34    716
34.36    679
34.38    646
34.4     617
34.42    666
34.44    692
34.46    697
34.48    726
34.5     770
34.52    791
34.54    789
34.56    861
34.58    881
34.6     854
34.62    905
34.64    854
34.66    794
34.68    754
34.7     775
34.72    690
34.74    670
34.76    715
34.78    722
34.8     785
34.82    875
34.84    933
34.86    1019
34.88    1110
34.9     1260
34.92    1379
34.94    1619
34.96    1925
34.98    2446
35.0     3389
35.02    4985
35.04    7184
35.06    9714
35.08    11813
35.1     13021
35.12    13165
35.14    12239
35.16    10333
35.18    7983
35.2     5679
35.22    3920
35.24    2876
35.26    2391
35.28    2080
35.3     1845
35.32    1681
35.34    1570
35.36    1452
35.38    1395
35.4     1364
35.42    1286
35.44    1188
35.46    1145
35.48    1136
35.5     1059
35.52    1023
35.54    1003
35.56    934
35.58    901
35.6     952
35.62    936
35.64    954
35.66    1032
35.68    1000
35.7     923
35.72    905
35.74    881
35.76    796
35.78    806
35.8     866
35.82    900
35.84    951
35.86    993
35.88    965
35.9     891
35.92    892
35.94    884
35.96    869
35.98    884
36.0     878
36.02    924
36.04    952
36.06    1004
36.08    1047
36.1     1079
36.12    1102
36.14    1155
36.16    1275
36.18    1412
36.2     1548
36.22    1776
36.24    2061
36.26    2351
36.28    2766
36.3     3288
36.32    3911
36.34    5037
36.36    6981
36.38    10152
36.4     14547
36.42    19496
36.44    23792
36.46    26349
36.48    26795
36.5     24969
36.52    21187
36.54    16278
36.56    11360
36.58    7426
36.6     4882
36.62    3488
36.64    2732
36.66    2244
36.68    1965
36.7     1795
36.72    1654
36.74    1542
36.76    1463
36.78    1371
36.8     1306
36.82    1271
36.84    1231
36.86    1212
36.88    1179
36.9     1099
36.92    998
36.94    983
36.96    980
36.98    997
37.0     1071
37.02    1084
37.04    1059
37.06    1074
37.08    1041
37.1     932
37.12    852
37.14    845
37.16    825
37.18    823
37.2     886
37.22    909
37.24    1005
37.26    1105
37.28    1176
37.3     1240
37.32    1316
37.34    1364
37.36    1353
37.38    1261
37.4     1177
37.42    1050
37.44    932
37.46    834
37.48    746
37.5     758
37.52    738
37.54    784
37.56    788
37.58    727
37.6     752
37.62    758
37.64    744
37.66    775
37.68    832
37.7     829
37.72    790
37.74    803
37.76    764
37.78    748
37.8     875
37.82    958
37.84    993
37.86    1001
37.88    968
37.9     783
37.92    682
37.94    629
37.96    597
37.98    643
38.0     740
38.02    837
38.04    810
38.06    772
38.08    664
38.1     536
38.12    431
38.14    432
38.16    453
38.18    572
38.2     677
38.22    807
38.24    811
38.26    889
38.28    841
38.3     729
38.32    560
38.34    513
38.36    458
38.38    510
38.4     535
38.42    630
38.44    730
38.46    779
38.48    687
38.5     679
38.52    639
38.54    654
38.56    659
38.58    713
38.6     712
38.62    796
38.64    836
38.66    760
38.68    617
38.7     581
38.72    482
38.74    485
38.76    517
38.78    574
38.8     605
38.82    750
38.84    814
38.86    813
38.88    699
38.9     623
38.92    516
38.94    444
38.96    406
38.98    451
39.0     529
39.02    654
39.04    746
39.06    839
39.08    839
39.1     788
39.12    753
39.14    670
39.16    639
39.18    665
39.2     680
39.22    700
39.24    724
39.26    684
39.28    589
39.3     517
39.32    549
39.34    581
39.36    639
39.38    684
39.4     705
39.42    742
39.44    750
39.46    628
39.48    553
39.5     544
39.52    550
39.54    552
39.56    625
39.58    659
39.6     735
39.62    784
39.64    863
39.66    819
39.68    858
39.7     772
39.72    671
39.74    617
39.76    612
39.78    599
39.8     649
39.82    644
39.84    684
39.86    708
39.88    785
39.9     673
39.92    654
39.94    713
39.96    709
39.98    795
40.0     918
40.02    993
40.04    1032
40.06    1103
40.08    1068
40.1     945
40.12    908
40.14    881
40.16    870
40.18    966
40.2     1039
40.22    1097
40.24    1134
40.26    1158
40.28    1034
40.3     988
40.32    980
40.34    909
40.36    903
40.38    935
40.4     881
40.42    933
40.44    1025
40.46    1088
40.48    1122
40.5     1269
40.52    1340
40.54    1263
40.56    1207
40.58    1122
40.6     996
40.62    981
40.64    1072
40.66    1132
40.68    1259
40.7     1397
40.72    1426
40.74    1361
40.76    1349
40.78    1316
40.8     1331
40.82    1350
40.84    1506
40.86    1600
40.88    1717
40.9     1785
40.92    1840
40.94    1882
40.96    1890
40.98    1958
41.0     2059
41.02    2132
41.04    2309
41.06    2459
41.08    2593
41.1     2683
41.12    2845
41.14    3000
41.16    3112
41.18    3407
41.2     3727
41.22    4092
41.24    4598
41.26    5176
41.28    5893
41.3     6807
41.32    7962
41.34    9533
41.36    11480
41.38    14245
41.4     18190
41.42    24195
41.44    33791
41.46    47543
41.48    64331
41.5     80470
41.52    91936
41.54    96303
41.56    92630
41.58    81597
41.6     65443
41.62    47531
41.64    31603
41.66    20158
41.68    13482
41.7     9777
41.72    7405
41.74    5871
41.76    4939
41.78    4234
41.8     3812
41.82    3618
41.84    3385
41.86    3155
41.88    2940
41.9     2730
41.92    2486
41.94    2300
41.96    2152
41.98    1988
42.0     1788
42.02    1732
42.04    1722
42.06    1682
42.08    1621
42.1     1551
42.12    1494
42.14    1386
42.16    1348
42.18    1346
42.2     1333
42.22    1406
42.24    1426
42.26    1466
42.28    1408
42.3     1350
42.32    1244
42.34    1135
42.36    1084
42.38    1067
42.4     1078
42.42    1154
42.44    1174
42.46    1268
42.48    1245
42.5     1206
42.52    1135
42.54    1044
42.56    995
42.58    921
42.6     899
42.62    909
42.64    921
42.66    1011
42.68    1067
42.7     1093
42.72    1083
42.74    1051
42.76    998
42.78    894
42.8     800
42.82    767
42.84    754
42.86    851
42.88    944
42.9     1008
42.92    1075
42.94    1032
42.96    966
42.98    895
43.0     802
43.02    765
43.04    720
43.06    720
43.08    705
43.1     774
43.12    861
43.14    753
43.16    794
43.18    840
43.2     859
43.22    811
43.24    820
43.26    823
43.28    830
43.3     891
43.32    893
43.34    856
43.36    869
43.38    845
43.4     805
43.42    690
43.44    710
43.46    736
43.48    761
43.5     803
43.52    818
43.54    877
43.56    876
43.58    865
43.6     861
43.62    847
43.64    886
43.66    877
43.68    841
43.7     828
43.72    799
43.74    802
43.76    773
43.78    727
43.8     706
43.82    722
43.84    725
43.86    726
43.88    733
43.9     761
43.92    798
43.94    794
43.96    800
43.98    802
44.0     808
44.02    750
44.04    747
44.06    746
44.08    774
44.1     783
44.12    756
44.14    747
44.16    763
44.18    798
44.2     803
44.22    752
44.24    780
44.26    741
44.28    776
44.3     744
44.32    738
44.34    791
44.36    834
44.38    880
44.4     892
44.42    898
44.44    868
44.46    823
44.48    779
44.5     706
44.52    694
44.54    684
44.56    736
44.58    726
44.6     720
44.62    736
44.64    769
44.66    770
44.68    699
44.7     699
44.72    749
44.74    783
44.76    825
44.78    864
44.8     919
44.82    1003
44.84    1011
44.86    986
44.88    965
44.9     984
44.92    1090
44.94    1256
44.96    1539
44.98    1943
45.0     2279
45.02    2532
45.04    2612
45.06    2566
45.08    2368
45.1     2015
45.12    1682
45.14    1374
45.16    1190
45.18    1032
45.2     927
45.22    919
45.24    904
45.26    861
45.28    813
45.3     814
45.32    807
45.34    753
45.36    728
45.38    707
45.4     747
45.42    765
45.44    770
45.46    816
45.48    805
45.5     862
45.52    843
45.54    866
45.56    864
45.58    836
45.6     759
45.62    691
45.64    685
45.66    667
45.68    603
45.7     591
45.72    655
45.74    733
45.76    737
45.78    747
45.8     699
45.82    723
45.84    685
45.86    607
45.88    573
45.9     561
45.92    630
45.94    568
45.96    579
45.98    616
46.0     644
46.02    658
46.04    609
46.06    653
46.08    732
46.1     747
46.12    757
46.14    716
46.16    733
46.18    731
46.2     675
46.22    631
46.24    633
46.26    676
46.28    694
46.3     702
46.32    707
46.34    686
46.36    684
46.38    694
46.4     655
46.42    671
46.44    623
46.46    590
46.48    586
46.5     597
46.52    589
46.54    585
46.56    687
46.58    707
46.6     711
46.62    698
46.64    691
46.66    709
46.68    679
46.7     659
46.72    668
46.74    693
46.76    677
46.78    624
46.8     599
46.82    570
46.84    627
46.86    603
46.88    621
46.9     666
46.92    682
46.94    681
46.96    636
46.98    628
47.0     565
47.02    543
47.04    569
47.06    541
47.08    568
47.1     621
47.12    717
47.14    749
47.16    723
47.18    708
47.2     678
47.22    656
47.24    612
47.26    549
47.28    576
47.3     633
47.32    685
47.34    705
47.36    720
47.38    774
47.4     801
47.42    728
47.44    693
47.46    648
47.48    628
47.5     585
47.52    574
47.54    553
47.56    596
47.58    615
47.6     666
47.62    658
47.64    724
47.66    797
47.68    816
47.7     799
47.72    784
47.74    713
47.76    725
47.78    623
47.8     654
47.82    649
47.84    670
47.86    740
47.88    790
47.9     792
47.92    857
47.94    836
47.96    818
47.98    772
48.0     725
48.02    636
48.04    643
48.06    689
48.08    724
48.1     724
48.12    753
48.14    703
48.16    681
48.18    622
48.2     547
48.22    602
48.24    682
48.26    727
48.28    765
48.3     818
48.32    822
48.34    741
48.36    643
48.38    583
48.4     589
48.42    556
48.44    508
48.46    540
48.48    628
48.5     675
48.52    685
48.54    646
48.56    662
48.58    698
48.6     692
48.62    556
48.64    497
48.66    524
48.68    557
48.7     535
48.72    549
48.74    629
48.76    688
48.78    695
48.8     685
48.82    613
48.84    574
48.86    542
48.88    489
48.9     482
48.92    494
48.94    560
48.96    576
48.98    549
49.0     567
49.02    601
49.04    621
49.06    586
49.08    597
49.1     669
49.12    714
49.14    741
49.16    760
49.18    729
49.2     713
49.22    691
49.24    647
49.26    523
49.28    447
49.3     410
49.32    445
49.34    444
49.36    454
49.38    536
49.4     600
49.42    641
49.44    644
49.46    586
49.48    529
49.5     539
49.52    573
49.54    541
49.56    501
49.58    557
49.6     609
49.62    648
49.64    614
49.66    553
49.68    493
49.7     497
49.72    448
49.74    431
49.76    407
49.78    508
49.8     591
49.82    667
49.84    671
49.86    678
49.88    642
49.9     553
49.92    410
49.94    369
49.96    336
49.98    324
50.0     337
50.02    412
50.04    509
50.06    631
50.08    641
50.1     589
50.12    627
50.14    695
50.16    690
50.18    614
50.2     596
50.22    567
50.24    556
50.26    562
50.28    523
50.3     515
50.32    590
50.34    730
50.36    780
50.38    803
50.4     823
50.42    801
50.44    776
50.46    736
50.48    618
50.5     559
50.52    523
50.54    548
50.56    514
50.58    513
50.6     539
50.62    602
50.64    601
50.66    600
50.68    589
50.7     645
50.72    638
50.74    631
50.76    598
50.78    584
50.8     604
50.82    614
50.84    585
50.86    610
50.88    629
50.9     637
50.92    623
50.94    652
50.96    679
50.98    690
51.0     692
51.02    634
51.04    623
51.06    623
51.08    565
51.1     537
51.12    528
51.14    586
51.16    637
51.18    632
51.2     602
51.22    583
51.24    596
51.26    610
51.28    557
51.3     514
51.32    567
51.34    630
51.36    669
51.38    715
51.4     717
51.42    823
51.44    856
51.46    792
51.48    733
51.5     690
51.52    668
51.54    663
51.56    597
51.58    598
51.6     591
51.62    649
51.64    609
51.66    585
51.68    606
51.7     633
51.72    559
51.74    591
51.76    588
51.78    598
51.8     607
51.82    654
51.84    663
51.86    744
51.88    766
51.9     771
51.92    720
51.94    794
51.96    779
51.98    687
52.0     618
52.02    593
52.04    573
52.06    619
52.08    647
52.1     661
52.12    708
52.14    794
52.16    782
52.18    784
52.2     756
52.22    749
52.24    795
52.26    821
52.28    834
52.3     839
52.32    842
52.34    811
52.36    766
52.38    736
52.4     671
52.42    667
52.44    729
52.46    759
52.48    745
52.5     795
52.52    845
52.54    840
52.56    780
52.58    672
52.6     594
52.62    635
52.64    600
52.66    508
52.68    494
52.7     575
52.72    671
52.74    737
52.76    755
52.78    751
52.8     780
52.82    793
52.84    723
52.86    661
52.88    700
52.9     762
52.92    773
52.94    826
52.96    832
52.98    831
53.0     809
53.02    767
53.04    724
53.06    743
53.08    770
53.1     898
53.12    945
53.14    1096
53.16    1167
53.18    1283
53.2     1261
53.22    1297
53.24    1272
53.26    1373
53.28    1403
53.3     1604
53.32    1787
53.34    2267
53.36    2832
53.38    3720
53.4     4778
53.42    6046
53.44    7110
53.46    7898
53.48    8115
53.5     7835
53.52    7017
53.54    5963
53.56    4695
53.58    3673
53.6     2867
53.62    2319
53.64    1933
53.66    1730
53.68    1576
53.7     1463
53.72    1330
53.74    1191
53.76    1063
53.78    970
53.8     847
53.82    820
53.84    770
53.86    725
53.88    727
53.9     781
53.92    765
53.94    843
53.96    868
53.98    856
54.0     828
54.02    914
54.04    825
54.06    722
54.08    594
54.1     499
54.12    438
54.14    533
54.16    498
54.18    491
54.2     535
54.22    729
54.24    772
54.26    825
54.28    741
54.3     740
54.32    764
54.34    753
54.36    631
54.38    556
54.4     512
54.42    623
54.44    629
54.46    636
54.48    653
54.5     752
54.52    762
54.54    800
54.56    795
54.58    754
54.6     704
54.62    708
54.64    671
54.66    639
54.68    572
54.7     544
54.72    519
54.74    540
54.76    571
54.78    560
54.8     560
54.82    632
54.84    693
54.86    617
54.88    521
54.9     530
54.92    505
54.94    474
54.96    547
54.98    590
55.0     648
55.02    761
55.04    715
55.06    673
55.08    734
55.1     739
55.12    655
55.14    606
55.16    617
55.18    574
55.2     593
55.22    567
55.24    526
55.26    552
55.28    609
55.3     635
55.32    617
55.34    639
55.36    659
55.38    573
55.4     650
55.42    621
55.44    641
55.46    585
55.48    595
55.5     609
55.52    619
55.54    671
55.56    668
55.58    710
55.6     769
55.62    782
55.64    807
55.66    732
55.68    672
55.7     694
55.72    677
55.74    640
55.76    594
55.78    589
55.8     517
55.82    532
55.84    548
55.86    511
55.88    597
55.9     682
55.92    699
55.94    715
55.96    708
55.98    657
56.0     661
56.02    666
56.04    611
56.06    589
56.08    621
56.1     524
56.12    562
56.14    603
56.16    695
56.18    772
56.2     832
56.22    852
56.24    857
56.26    879
56.28    772
56.3     669
56.32    620
56.34    538
56.36    501
56.38    444
56.4     376
56.42    491
56.44    591
56.46    688
56.48    748
56.5     846
56.52    818
56.54    843
56.56    848
56.58    793
56.6     738
56.62    800
56.64    784
56.66    785
56.68    805
56.7     745
56.72    718
56.74    842
56.76    876
56.78    806
56.8     738
56.82    717
56.84    670
56.86    684
56.88    672
56.9     643
56.92    749
56.94    863
56.96    829
56.98    807
57.0     783
57.02    770
57.04    743
57.06    812
57.08    790
57.1     821
57.12    898
57.14    917
57.16    858
57.18    849
57.2     802
57.22    751
57.24    742
57.26    708
57.28    693
57.3     690
57.32    722
57.34    755
57.36    825
57.38    862
57.4     865
57.42    905
57.44    965
57.46    946
57.48    987
57.5     883
57.52    807
57.54    801
57.56    821
57.58    827
57.6     824
57.62    879
57.64    956
57.66    1050
57.68    1127
57.7     1085
57.72    1049
57.74    1083
57.76    1080
57.78    1102
57.8     1077
57.82    1120
57.84    1194
57.86    1293
57.88    1403
57.9     1553
57.92    1642
57.94    1752
57.96    1861
57.98    2044
58.0     2142
58.02    2296
58.04    2479
58.06    2651
58.08    2934
58.1     3411
58.12    3898
58.14    4628
58.16    5756
58.18    7305
58.2     9294
58.22    11834
58.24    14382
58.26    16536
58.28    17953
58.3     18372
58.32    17542
58.34    15748
58.36    13282
58.38    10568
58.4     8183
58.42    6384
58.44    4925
58.46    3950
58.48    3272
58.5     2797
58.52    2437
58.54    2209
58.56    1907
58.58    1709
58.6     1641
58.62    1540
58.64    1406
58.66    1329
58.68    1257
58.7     1160
58.72    1138
58.74    1119
58.76    980
58.78    977
58.8     927
58.82    857
58.84    904
58.86    930
58.88    912
58.9     942
58.92    994
58.94    980
58.96    982
58.98    964
59.0     869
59.02    836
59.04    818
59.06    744
59.08    634
59.1     619
59.12    598
59.14    571
59.16    576
59.18    575
59.2     616
59.22    646
59.24    642
59.26    691
59.28    721
59.3     775
59.32    817
59.34    830
59.36    765
59.38    805
59.4     801
59.42    697
59.44    599
59.46    528
59.48    445
59.5     416
59.52    400
59.54    398
59.56    410
59.58    512
59.6     600
59.62    666
59.64    759
59.66    782
59.68    790
59.7     829
59.72    822
59.74    769
59.76    658
59.78    579
59.8     549
59.82    546
59.84    549
59.86    478
59.88    466
59.9     569
59.92    688
59.94    775
59.96    702
59.98    726
60.0     726
60.02    752
60.04    728
60.06    663
60.08    625
60.1     647
60.12    640
60.14    635
60.16    565
60.18    535
60.2     563
60.22    599
60.24    651
60.26    702
60.28    670
60.3     660
60.32    645
60.34    711
60.36    694
60.38    653
60.4     661
60.42    629
60.44    625
60.46    588
60.48    573
60.5     527
60.52    553
60.54    620
60.56    626
60.58    666
60.6     696
60.62    699
60.64    716
60.66    761
60.68    724
60.7     645
60.72    653
60.74    644
60.76    619
60.78    608
60.8     649
60.82    667
60.84    718
60.86    785
60.88    726
60.9     689
60.92    639
60.94    584
60.96    558
60.98    507
61.0     487
61.02    458
61.04    481
61.06    557
61.08    629
61.1     612
61.12    608
61.14    648
61.16    731
61.18    726
61.2     730
61.22    689
61.24    662
61.26    672
61.28    707
61.3     657
61.32    600
61.34    641
61.36    738
61.38    789
61.4     826
61.42    800
61.44    761
61.46    745
61.48    753
61.5     722
61.52    651
61.54    637
61.56    651
61.58    696
61.6     699
61.62    710
61.64    679
61.66    720
61.68    831
61.7     912
61.72    938
61.74    993
61.76    1065
61.78    1130
61.8     1121
61.82    1168
61.84    1200
61.86    1281
61.88    1470
61.9     1658
61.92    1932
61.94    2354
61.96    2967
61.98    3846
62.0     5275
62.02    7411
62.04    10270
62.06    13551
62.08    16875
62.1     19554
62.12    21232
62.14    21508
62.16    20422
62.18    18121
62.2     15117
62.22    11989
62.24    9202
62.26    6927
62.28    5211
62.3     4000
62.32    3146
62.34    2535
62.36    2136
62.38    1902
62.4     1627
62.42    1452
62.44    1256
62.46    1093
62.48    950
62.5     915
62.52    823
62.54    790
62.56    777
62.58    847
62.6     847
62.62    986
62.64    1053
62.66    1067
62.68    1080
62.7     1076
62.72    1025
62.74    916
62.76    798
62.78    656
62.8     516
62.82    464
62.84    491
62.86    513
62.88    569
62.9     579
62.92    598
62.94    626
62.96    729
62.98    746
63.0     765
63.02    740
63.04    754
63.06    701
63.08    663
63.1     632
63.12    574
63.14    538
63.16    604
63.18    648
63.2     701
63.22    709
63.24    708
63.26    731
63.28    758
63.3     770
63.32    731
63.34    664
63.36    599
63.38    562
63.4     510
63.42    478
63.44    439
63.46    390
63.48    400
63.5     435
63.52    525
63.54    622
63.56    682
63.58    755
63.6     807
63.62    828
63.64    835
63.66    761
63.68    712
63.7     624
63.72    614
63.74    644
63.76    635
63.78    600
63.8     663
63.82    593
63.84    588
63.86    560
63.88    516
63.9     471
63.92    482
63.94    557
63.96    614
63.98    681
64.0     785
64.02    745
64.04    713
64.06    728
64.08    685
64.1     632
64.12    607
64.14    656
64.16    641
64.18    648
64.2     715
64.22    696
64.24    618
64.26    682
64.28    693
64.3     704
64.32    662
64.34    697
64.36    699
64.38    713
64.4     804
64.42    822
64.44    831
64.46    879
64.48    924
64.5     998
64.52    1015
64.54    1048
64.56    1084
64.58    1091
64.6     1265
64.62    1368
64.64    1510
64.66    1782
64.68    2196
64.7     2731
64.72    3405
64.74    4054
64.76    4645
64.78    5001
64.8     5284
64.82    5251
64.84    4905
64.86    4412
64.88    3810
64.9     3116
64.92    2568
64.94    2116
64.96    1799
64.98    1456
65.0     1287
65.02    1219
65.04    1080
65.06    1029
65.08    991
65.1     918
65.12    854
65.14    765
65.16    757
65.18    657
65.2     597
65.22    599
65.24    539
65.26    514
65.28    537
65.3     578
65.32    627
65.34    612
65.36    646
65.38    681
65.4     715
65.42    703
65.44    659
65.46    577
65.48    552
65.5     465
65.52    449
65.54    413
65.56    359
65.58    380
65.6     465
65.62    424
65.64    485
65.66    480
65.68    582
65.7     605
65.72    616
65.74    647
65.76    600
65.78    558
65.8     572
65.82    455
65.84    470
65.86    446
65.88    484
65.9     482
65.92    480
65.94    509
65.96    519
65.98    500
66.0     556
66.02    518
66.04    508
66.06    500
66.08    478
66.1     449
66.12    438
66.14    426
66.16    425
66.18    370
66.2     398
66.22    370
66.24    385
66.26    434
66.28    458
66.3     571
66.32    638
66.34    687
66.36    668
66.38    630
66.4     577
66.42    505
66.44    464
66.46    471
66.48    526
66.5     619
66.52    641
66.54    666
66.56    644
66.58    665
66.6     620
66.62    563
66.64    524
66.66    538
66.68    543
66.7     563
66.72    525
66.74    527
66.76    480
66.78    544
66.8     532
66.82    475
66.84    456
66.86    483
66.88    484
66.9     528
66.92    484
66.94    524
66.96    445
66.98    535
67.0     518
67.02    533
67.04    570
67.06    606
67.08    616
67.1     610
67.12    605
67.14    632
67.16    557
67.18    550
67.2     475
67.22    399
67.24    333
67.26    315
67.28    396
67.3     422
67.32    471
67.34    551
67.36    602
67.38    608
67.4     606
67.42    541
67.44    528
67.46    563
67.48    584
67.5     551
67.52    558
67.54    526
67.56    549
67.58    511
67.6     508
67.62    411
67.64    344
67.66    323
67.68    336
67.7     334
67.72    415
67.74    412
67.76    423
67.78    440
67.8     423
67.82    401
67.84    381
67.86    402
67.88    416
67.9     385
67.92    393
67.94    454
67.96    478
67.98    514
68.0     566
68.02    663
68.04    676
68.06    678
68.08    638
68.1     631
68.12    582
68.14    607
68.16    549
68.18    461
68.2     415
68.22    386
68.24    346
68.26    375
68.28    434
68.3     509
68.32    567
68.34    600
68.36    574
68.38    539
68.4     568
68.42    629
68.44    628
68.46    638
68.48    678
68.5     703
68.52    727
68.54    715
68.56    695
68.58    605
68.6     578
68.62    535
68.64    522
68.66    534
68.68    576
68.7     599
68.72    632
68.74    701
68.76    783
68.78    861
68.8     975
68.82    1121
68.84    1328
68.86    1562
68.88    1869
68.9     2295
68.92    2901
68.94    3537
68.96    4193
68.98    4724
69.0     5051
69.02    5042
69.04    4773
69.06    4379
69.08    3838
69.1     3258
69.12    2730
69.14    2228
69.16    1870
69.18    1599
69.2     1441
69.22    1271
69.24    1161
69.26    1155
69.28    1085
69.3     995
69.32    936
69.34    853
69.36    832
69.38    770
69.4     699
69.42    678
69.44    633
69.46    638
69.48    599
69.5     673
69.52    693
69.54    678
69.56    680
69.58    630
69.6     613
69.62    617
69.64    562
69.66    569
69.68    526
69.7     579
69.72    538
69.74    541
69.76    515
69.78    524
69.8     568
69.82    562
69.84    561
69.86    582
69.88    528
69.9     550
69.92    549
69.94    547
69.96    534
69.98    513
70.0     480
70.02    456
70.04    469
70.06    458
70.08    489
70.1     514
70.12    590
70.14    633
70.16    683
70.18    687
70.2     686
70.22    664
70.24    632
70.26    590
70.28    539
70.3     447
70.32    473
70.34    517
70.36    637
70.38    735
70.4     846
70.42    866
70.44    987
70.46    1118
70.48    1200
70.5     1310
70.52    1474
70.54    1631
70.56    1783
70.58    1968
70.6     2096
70.62    2197
70.64    2245
70.66    2223
70.68    2082
70.7     1902
70.72    1676
70.74    1469
70.76    1340
70.78    1226
70.8     1103
70.82    1057
70.84    933
70.86    878
70.88    778
70.9     695
70.92    611
70.94    594
70.96    598
70.98    511
71.0     507
71.02    558
71.04    620
71.06    691
71.08    725
71.1     791
71.12    781
71.14    718
71.16    656
71.18    553
71.2     518
71.22    481
71.24    402
71.26    343
71.28    396
71.3     437
71.32    498
71.34    508
71.36    489
71.38    479
71.4     549
71.42    554
71.44    504
71.46    508
71.48    523
71.5     513
71.52    500
71.54    501
71.56    474
71.58    406
71.6     450
71.62    442
71.64    492
71.66    572
71.68    606
71.7     657
71.72    677
71.74    696
71.76    679
71.78    579
71.8     543
71.82    522
71.84    559
71.86    527
71.88    469
71.9     449
71.92    404
71.94    379
71.96    431
71.98    536
72.0     635
72.02    717
72.04    778
72.06    750
72.08    744
72.1     729
72.12    713
72.14    714
72.16    727
72.18    757
72.2     724
72.22    711
72.24    715
72.26    738
72.28    862
72.3     977
72.32    1107
72.34    1272
72.36    1537
72.38    1909
72.4     2318
72.42    2891
72.44    3527
72.46    4226
72.48    4912
72.5     5446
72.52    5778
72.54    5857
72.56    5711
72.58    5360
72.6     4717
72.62    4057
72.64    3366
72.66    2843
72.68    2382
72.7     2109
72.72    1885
72.74    1642
72.76    1503
72.78    1352
72.8     1097
72.82    976
72.84    898
72.86    867
72.88    759
72.9     767
72.92    652
72.94    597
72.96    626
72.98    608
73.0     655
73.02    752
73.04    787
73.06    734
73.08    675
73.1     718
73.12    666
73.14    703
73.16    686
73.18    695
73.2     734
73.22    704
73.24    658
73.26    592
73.28    649
73.3     755
73.32    829
73.34    906
73.36    1024
73.38    1221
73.4     1285
73.42    1322
73.44    1323
73.46    1279
73.48    1234
73.5     1112
73.52    1017
73.54    953
73.56    974
73.58    949
73.6     841
73.62    806
73.64    792
73.66    768
73.68    676
73.7     623
73.72    632
73.74    621
73.76    622
73.78    570
73.8     486
73.82    485
73.84    436
73.86    455
73.88    493
73.9     545
73.92    539
73.94    556
73.96    584
73.98    633
74.0     649
74.02    693
74.04    687
74.06    821
74.08    902
74.1     915
74.12    979
74.14    1197
74.16    1477
74.18    1831
74.2     2164
74.22    2439
74.24    2672
74.26    2923
74.28    2861
74.3     2706
74.32    2572
74.34    2331
74.36    2042
74.38    1781
74.4     1463
74.42    1279
74.44    1162
74.46    1037
74.48    831
74.5     764
74.52    747
74.54    673
74.56    632
74.58    692
74.6     661
74.62    812
74.64    886
74.66    835
74.68    939
74.7     1093
74.72    1185
74.74    1301
74.76    1372
74.78    1564
74.8     1658
74.82    1932
74.84    2125
74.86    2255
74.88    2462
74.9     2510
74.92    2400
74.94    2277
74.96    2037
74.98    1897
75.0     1688
75.02    1605
75.04    1456
75.06    1387
75.08    1294
75.1     1145
75.12    998
75.14    964
75.16    890
75.18    885
75.2     804
75.22    755
75.24    694
75.26    701
75.28    592
75.3     566
75.32    553
75.34    612
75.36    551
75.38    570
75.4     501
75.42    539
75.44    545
75.46    563
75.48    512
75.5     551
75.52    583
75.54    583
75.56    514
75.58    554
75.6     484
75.62    568
75.64    561
75.66    588
75.68    540
75.7     560
75.72    585
75.74    530
75.76    522
75.78    563
75.8     509
75.82    530
75.84    459
75.86    458
75.88    415
75.9     417
75.92    379
75.94    311
75.96    307
75.98    268
76.0     196
76.02    190
76.04    161
76.06    289
76.08    415
76.1     482
76.12    545
76.14    584
76.16    612
76.18    596
76.2     601
76.22    641
76.24    648
76.26    698
76.28    692
76.3     557
76.32    494
76.34    424
76.36    359
76.38    349
76.4     400
76.42    470
76.44    468
76.46    426
76.48    419
76.5     377
76.52    429
76.54    418
76.56    425
76.58    480
76.6     544
76.62    562
76.64    533
76.66    548
76.68    608
76.7     614
76.72    611
76.74    580
76.76    550
76.78    498
76.8     470
76.82    435
76.84    395
76.86    367
76.88    394
76.9     372
76.92    350
76.94    387
76.96    406
76.98    407
77.0     472
77.02    467
77.04    490
77.06    534
77.08    634
77.1     679
77.12    727
77.14    764
77.16    801
77.18    795
77.2     816
77.22    804
77.24    873
77.26    1004
77.28    1107
77.3     1168
77.32    1305
77.34    1468
77.36    1669
77.38    1971
77.4     2353
77.42    2849
77.44    3506
77.46    4279
77.48    4991
77.5     5635
77.52    6253
77.54    6603
77.56    6717
77.58    6575
77.6     6168
77.62    5538
77.64    4841
77.66    4065
77.68    3320
77.7     2716
77.72    2231
77.74    1836
77.76    1606
77.78    1357
77.8     1222
77.82    1097
77.84    956
77.86    824
77.88    773
77.9     795
77.92    723
77.94    673
77.96    691
77.98    625
78.0     577
78.02    501
78.04    437
78.06    422
78.08    464
78.1     558
78.12    612
78.14    682
78.16    809
78.18    763
78.2     669
78.22    622
78.24    582
78.26    491
78.28    427
78.3     483
78.32    494
78.34    431
78.36    382
78.38    250
78.4     218
78.42    286
78.44    304
78.46    273
78.48    314
78.5     424
78.52    452
78.54    391
78.56    435
78.58    425
78.6     490
78.62    560
78.64    521
78.66    409
78.68    402
78.7     416
78.72    401
78.74    383
78.76    412
78.78    421
78.8     457
78.82    437
78.84    409
78.86    399
78.88    447
78.9     461
78.92    433
78.94    439
78.96    408
78.98    383
79.0     295
79.02    237
79.04    223
79.06    244
79.08    267
79.1     251
79.12    239
79.14    321
79.16    375
79.18    422
79.2     440
79.22    511
79.24    576
79.26    654
79.28    646
79.3     638
79.32    581
79.34    587
79.36    516
79.38    419
79.4     310
79.42    269
79.44    253
79.46    298
79.48    278
79.5     295
79.52    270
79.54    242
79.56    208
79.58    189
79.6     251
79.62    305
79.64    359
79.66    457
79.68    486
79.7     441
79.72    399
79.74    389
79.76    400
79.78    447
79.8     518
79.82    551
79.84    519
79.86    503
79.88    469
79.9     389
79.92    381
79.94    402
79.96    435
79.98    443
80.0     517
80.02    568
80.04    521
80.06    540
80.08    601
80.1     627
80.12    657
80.14    694
80.16    759
80.18    664
80.2     654
80.22    654
80.24    568
80.26    523
80.28    549
80.3     477
80.32    412
80.34    284
80.36    258
80.38    149
80.4     164
80.42    264
80.44    233
80.46    173
80.48    240
80.5     254
80.52    239
80.54    224
80.56    319
80.58    458
80.6     509
80.62    519
80.64    448
80.66    368
80.68    394
80.7     427
80.72    366
80.74    379
80.76    371
80.78    433
80.8     327
80.82    256
80.84    298
80.86    349
80.88    402
80.9     475
80.92    394
80.94    354
80.96    345
80.98    310
81.0     249
81.02    246
81.04    425
81.06    570
81.08    607
81.1     620
81.12    499
81.14    422
81.16    406
81.18    282
81.2     236
81.22    247
81.24    321
81.26    349
81.28    293
81.3     211
81.32    131
81.34    113
81.36    122
81.38    110
81.4     184
81.42    301
81.44    311
81.46    354
81.48    382
81.5     352
81.52    418
81.54    485
81.56    542
81.58    588
81.6     592
81.62    568
81.64    465
81.66    354
81.68    301
81.7     215
81.72    237
81.74    266
81.76    279
81.78    291
81.8     219
81.82    206
81.84    206
81.86    184
81.88    296
81.9     378
81.92    439
81.94    478
81.96    471
81.98    417
82.0     347
82.02    331
82.04    285
82.06    273
82.08    324
82.1     332
82.12    316
82.14    274
82.16    279
82.18    272
82.2     261
82.22    331
82.24    359
82.26    400
82.28    428
82.3     414
82.32    422
82.34    426
82.36    435
82.38    428
82.4     407
82.42    419
82.44    348
82.46    335
82.48    284
82.5     300
82.52    365
82.54    348
82.56    301
82.58    292
82.6     264
82.62    225
82.64    209
82.66    217
82.68    254
82.7     349
82.72    437
82.74    400
82.76    356
82.78    312
82.8     231
82.82    194
82.84    193
82.86    182
82.88    182
82.9     240
82.92    319
82.94    338
82.96    352
82.98    350
83.0     364
83.02    372
83.04    385
83.06    388
83.08    367
83.1     377
83.12    376
83.14    339
83.16    313
83.18    298
83.2     290
83.22    322
83.24    330
83.26    332
83.28    342
83.3     353
83.32    354
83.34    300
83.36    313
83.38    360
83.4     395
83.42    479
83.44    493
83.46    422
83.48    385
83.5     332
83.52    303
83.54    267
83.56    239
83.58    192
83.6     196
83.62    209
83.64    204
83.66    168
83.68    147
83.7     176
83.72    272
83.74    322
83.76    377
83.78    388
83.8     447
83.82    531
83.84    585
83.86    584
83.88    501
83.9     507
83.92    509
83.94    491
83.96    487
83.98    420
84.0     413
84.02    367
84.04    363
84.06    333
84.08    233
84.1     186
84.12    125
84.14    175
84.16    210
84.18    191
84.2     195
84.22    229
84.24    349
84.26    353
84.28    339
84.3     347
84.32    324
84.34    458
84.36    495
84.38    495
84.4     467
84.42    465
84.44    468
84.46    387
84.48    374
84.5     323
84.52    263
84.54    359
84.56    326
84.58    376
84.6     368
84.62    384
84.64    430
84.66    366
84.68    353
84.7     367
84.72    394
84.74    442
84.76    404
84.78    511
84.8     514
84.82    548
84.84    494
84.86    420
84.88    432
84.9     461
84.92    455
84.94    434
84.96    412
84.98    422
85.0     402
85.02    476
85.04    416
85.06    392
85.08    392
85.1     438
85.12    429
85.14    425
85.16    405
85.18    382
85.2     397
85.22    436
85.24    383
85.26    349
85.28    312
85.3     342
85.32    330
85.34    330
85.36    302
85.38    252
85.4     271
85.42    292
85.44    353
85.46    366
85.48    293
85.5     238
85.52    223
85.54    231
85.56    262
85.58    297
85.6     361
85.62    383
85.64    456
85.66    400
85.68    284
85.7     168
85.72    130
85.74    136
85.76    220
85.78    265
85.8     205
85.82    126
85.84    171
85.86    236
85.88    242
85.9     235
85.92    347
85.94    414
85.96    448
85.98    376
86.0     249
86.02    196
86.04    230
86.06    333
86.08    375
86.1     466
86.12    511
86.14    479
86.16    399
86.18    335
86.2     317
86.22    346
86.24    433
86.26    606
86.28    789
86.3     923
86.32    991
86.34    1060
86.36    1104
86.38    1199
86.4     1274
86.42    1281
86.44    1321
86.46    1298
86.48    1293
86.5     1159
86.52    1036
86.54    886
86.56    790
86.58    726
86.6     647
86.62    586
86.64    520
86.66    480
86.68    460
86.7     399
86.72    385
86.74    331
86.76    384
86.78    411
86.8     374
86.82    394
86.84    355
86.86    346
86.88    252
86.9     243
86.92    299
86.94    317
86.96    402
86.98    430
87.0     391
87.02    390
87.04    352
87.06    301
87.08    214
87.1     240
87.12    318
87.14    406
87.16    448
87.18    399
87.2     359
87.22    339
87.24    345
87.26    331
87.28    286
87.3     248
87.32    308
87.34    397
87.36    436
87.38    378
87.4     384
87.42    293
87.44    315
87.46    284
87.48    238
87.5     175
87.52    161
87.54    176
87.56    249
87.58    227
87.6     204
87.62    74
87.64    141
87.66    172
87.68    226
87.7     292
87.72    347
87.74    453
87.76    551
87.78    595
87.8     594
87.82    480
87.84    413
87.86    330
87.88    345
87.9     348
87.92    305
87.94    292
87.96    279
87.98    278
88.0     217
88.02    126
88.04    90
88.06    84
88.08    170
88.1     237
88.12    276
88.14    328
88.16    309
88.18    291
88.2     260
88.22    218
88.24    208
88.26    165
88.28    171
88.3     233
88.32    220
88.34    229
88.36    145
88.38    125
88.4     127
88.42    176
88.44    228
88.46    264
88.48    296
88.5     380
88.52    418
88.54    457
88.56    415
88.58    430
88.6     421
88.62    467
88.64    460
88.66    418
88.68    376
88.7     310
88.72    271
88.74    216
88.76    182
88.78    177
88.8     145
88.82    214
88.84    255
88.86    249
88.88    279
88.9     231
88.92    239
88.94    249
88.96    265
88.98    294
89.0     274
89.02    289
89.04    262
89.06    242
89.08    254
89.1     291
89.12    331
89.14    398
89.16    417
89.18    435
89.2     385
89.22    304
89.24    313
89.26    324
89.28    325
89.3     373
89.32    348
89.34    366
89.36    296
89.38    288
89.4     236
89.42    172
89.44    217
89.46    203
89.48    272
89.5     316
89.52    332
89.54    368
89.56    316
89.58    348
89.6     316
89.62    235
89.64    240
89.66    192
89.68    229
89.7     262
89.72    309
89.74    367
89.76    376
89.78    429
89.8     520
89.82    522
89.84    497
89.86    432
89.88    448
89.9     468
89.92    496
89.94    440
89.96    531
89.98    513
90.0     492
